#theta R n z T P_w
0 6365.5 1.000281307407972 1.560324351282931 288.15 1.875690119715728
0.0001 6365.506698014227 1.000281110915842 1.560242947854595 288.1064629075221 1.870438069329452
0.0002 6365.513447858746 1.000280913036028 1.560161532516665 288.0625889181505 1.865158449349166
0.0003 6365.520249541392 1.000280713771258 1.560080105174537 288.0183779809498 1.859851527962581
0.0004 6365.527103070064 1.000280513124283 1.559998665734031 287.9738300445828 1.854517574451261
0.0005 6365.534008452722 1.000280311097866 1.559917214101482 287.9289450573041 1.849156859170364
0.0006000000000000001 6365.540965697389 1.00028010769479 1.559835750183436 287.8837229669724 1.84376965353043
0.0007 6365.547974812148 1.000279902917855 1.559754273886956 287.8381637210385 1.838356229976272
0.0008 6365.555035805145 1.000279696769877 1.559672785119503 287.7922672665571 1.832916861968623
0.0009000000000000001 6365.562148684585 1.000279489253691 1.559591283788818 287.7460335501986 1.82745182396569
0.001 6365.569313458735 1.000279280372146 1.559509769803188 287.6994625182255 1.821961391400449
0.0011 6365.576530135921 1.000279070128111 1.559428243071109 287.6525541165159 1.81644584066347
0.0012 6365.58379872453 1.000278858524471 1.55934670350155 287.6053082905522 1.810905449081491
0.0013 6365.591119233013 1.000278645564126 1.559265151003837 287.5577249854144 1.805340494896631
0.0014 6365.598491669874 1.000278431249994 1.559183585487656 287.5098041458162 1.799751257250391
0.0015 6365.605916043681 1.000278215585011 1.559102006863088 287.4615457160752 1.794138016159961
0.0016 6365.613392363058 1.000277998572126 1.559020415040592 287.4129496401246 1.788501052499343
0.0017 6365.620920636691 1.000277780214309 1.558938809930848 287.3640158615075 1.782840647978322
0.0018 6365.628500873325 1.000277560514544 1.558857191445104 287.3147443233887 1.777157085123467
0.0019 6365.636133081761 1.00027733947583 1.558775559494775 287.2651349685547 1.771450647257683
0.002 6365.643817270861 1.000277117101184 1.558693913991817 287.2151877394016 1.765721618478364
0.0021 6365.651553449544 1.00027689339364 1.558612254848356 287.1649025779651 1.759970283640252
0.0022 6365.659341626786 1.000276668356247 1.558530581977049 287.1142794258907 1.754196928331458
0.0023 6365.667181811623 1.000276441992069 1.558448895290696 287.0633182244513 1.748401838854871
0.0024 6365.675074013147 1.000276214304188 1.558367194702663 287.0120189145476 1.742585302207475
0.0025 6365.683018240506 1.000275985295701 1.558285480126524 286.9603814367077 1.736747606059632
0.0026 6365.69101450291 1.000275754969722 1.558203751476175 286.9084057310873 1.730889038734327
0.0027 6365.699062809619 1.000275523329378 1.558122008666003 286.8560917374756 1.725009889187039
0.0028 6365.707163169955 1.000275290377814 1.55804025161059 286.8034393952952 1.719110446984896
0.0029 6365.715315593293 1.00027505611819 1.557958480224927 286.7504486435963 1.713191002285152
0.003 6365.723520089067 1.000274820553682 1.557876694424347 286.6971194210627 1.707251845814943
0.0031 6365.731776666766 1.00027458368748 1.557794894124483 286.6434516660232 1.701293268851674
0.0032 6365.740085335933 1.000274345522792 1.557713079241319 286.5894453164345 1.695315563200066
0.0033 6365.74844610617 1.000274106062838 1.557631249691179 286.5351003098925 1.689319021172493
0.0034 6365.756858987133 1.000273865310855 1.557549405390752 286.4804165836384 1.683303935568602
0.0035 6365.76532398853 1.000273623270097 1.55746754625699 286.4253940745529 1.67727059965361
0.0036 6365.773841120129 1.000273379943829 1.557385672207247 286.3700327191617 1.671219307137888
0.0037 6365.782410391749 1.000273135335333 1.5573037831592 286.3143324536303 1.665150352155217
0.0038 6365.791031813264 1.000272889447908 1.557221879030801 286.258293213781 1.659064029243613
0.0039 6365.799705394606 1.000272642284865 1.557139959740346 286.2019149350639 1.652960633320978
0.004 6365.808431145754 1.000272393849531 1.557058025206569 286.1451975525978 1.646840459668445
0.0041 6365.817209076749 1.000272144145246 1.556976075348345 286.0881410011292 1.640703803904746
0.004200000000000001 6365.826039197681 1.000271893175367 1.556894110085038 286.0307452150736 1.634550961969496
0.0043 6365.834921518694 1.000271640943265 1.556812129336252 285.9730101284916 1.62838223009946
0.0044 6365.843856049984 1.000271387452323 1.556730133021979 285.9149356751012 1.622197904808627
0.004500000000000001 6365.852842801803 1.000271132705942 1.556648121062451 285.8565217882773 1.615998282867003
0.0046 6365.861881784454 1.000270876707535 1.556566093378327 285.797768401046 1.609783661278774
0.0047 6365.870973008296 1.00027061946053 1.556484049890503 285.7386754460789 1.603554337260485
0.0048 6365.880116483733 1.000270360968368 1.556401990520239 285.6792428557341 1.597310608224186
0.0049 6365.889312221229 1.000270101234505 1.556319915189131 285.619470562009 1.591052771751229
0.005 6365.898560231296 1.000269840262412 1.556237823819091 285.5593584965762 1.584781125574783
0.0051 6365.907860524499 1.000269578055571 1.556155716332321 285.4989065907533 1.578495967555539
0.005200000000000001 6365.917213111455 1.000269314617481 1.556073592651412 285.4381147755447 1.572197595664816
0.0053 6365.92661800283 1.000269049951652 1.555991452699209 285.3769829816059 1.565886307959665
0.0054 6365.936075209345 1.000268784061609 1.555909296398912 285.3155111392556 1.55956240256293
0.005500000000000001 6365.94558474177 1.00026851695089 1.555827123674056 285.2536991784931 1.553226177643879
0.0056 6365.955146610927 1.000268248623048 1.555744934448472 285.1915470289749 1.54687793139462
0.0057 6365.964760827685 1.000267979081647 1.55566272864633 285.1290546200443 1.540517962011963
0.0058 6365.974427402968 1.000267708330265 1.555580506192089 285.0662218807073 1.53414656767387
0.0059 6365.984146347749 1.000267436372495 1.555498267010591 285.0030487396333 1.52776404651835
0.006 6365.993917673049 1.000267163211941 1.555416011026942 284.9395351251841 1.521370696625356
0.0061 6366.003741389939 1.00026688885222 1.555333738166622 284.8756809653963 1.514966815993893
0.006200000000000001 6366.013617509542 1.000266613296963 1.555251448355367 284.8114861879757 1.508552702520385
0.0063 6366.02354604303 1.000266336549814 1.555169141519275 284.7469507203026 1.502128653978246
0.0064 6366.033527001623 1.000266058614429 1.555086817584788 284.6820744894502 1.495694967998642
0.006500000000000001 6366.04356039659 1.000265779494476 1.555004476478587 284.6168574221664 1.489251942047749
0.0066 6366.053646239248 1.000265499193638 1.554922118127778 284.5512994448858 1.482799873406981
0.0067 6366.063784540966 1.000265217715609 1.554839742459682 284.4854004837179 1.47633905915092
0.0068 6366.073975313159 1.000264935064094 1.554757349402056 284.4191604644647 1.469869796128182
0.006900000000000001 6366.08421856729 1.000264651242812 1.554674938882872 284.3525793126149 1.463392380939996
0.007 6366.09451431487 1.000264366255495 1.55459251083047 284.2856569533441 1.456907109919397
0.0071 6366.104862567459 1.000264080105886 1.554510065173526 284.2183933115142 1.450414279110469
0.007200000000000001 6366.115263336664 1.00026379279774 1.554427601841012 284.1507883116859 1.443914184248763
0.0073 6366.125716634138 1.000263504334824 1.554345120762197 284.0828418781006 1.437407120738912
0.0074 6366.136222471584 1.000263214720918 1.554262621866741 284.0145539347039 1.430893383636267
0.007500000000000001 6366.14678086075 1.000262923959812 1.554180105084544 283.9459244051226 1.424373267624053
0.0076 6366.157391813432 1.000262632055308 1.554097570345909 283.8769532126934 1.417847066995648
0.0077 6366.168055341471 1.000262339011222 1.554015017581384 283.8076402804398 1.411315075631841
0.007800000000000001 6366.178771456755 1.000262044831378 1.553932446721888 283.73798553109 1.40477758698209
0.007900000000000001 6366.18954017122 1.000261749519615 1.553849857698624 283.6679888870702 1.398234894043569
0.008 6366.200361496845 1.000261453079781 1.553767250443141 283.5976502705056 1.391687289340855
0.0081 6366.211235445658 1.000261155515735 1.553684624887314 283.5269696032254 1.385135064906207
0.008200000000000001 6366.222162029728 1.00026085683135 1.553601980963317 283.4559468067695 1.378578512259905
0.0083 6366.233141261174 1.000260557030507 1.553519318603655 283.38458180237 1.372017922388467
0.008400000000000001 6366.244173152159 1.000260256117099 1.553436637741179 283.3128745109697 1.365453585726206
0.008500000000000001 6366.255257714889 1.00025995409503 1.553353938309017 283.2408248532214 1.35888579213521
0.0086 6366.266394961617 1.000259650968215 1.553271220240642 283.1684327494885 1.352314830885384
0.008700000000000001 6366.277584904641 1.00025934674058 1.55318848346983 283.0956981198327 1.345740990633502
0.008800000000000001 6366.288827556301 1.000259041416062 1.553105727930704 283.0226208840439 1.339164559406073
0.0089 6366.300122928982 1.000258734998607 1.553022953557716 282.9492009616164 1.332585824577451
0.009000000000000001 6366.311471035115 1.000258427492173 1.552940160285592 282.8754382717547 1.32600507285072
0.0091 6366.322871887171 1.000258118900727 1.552857348049416 282.8013327333914 1.319422590239677
0.0092 6366.334325497667 1.000257809228247 1.552774516784586 282.7268842651637 1.312838662047213
0.009300000000000001 6366.345831879165 1.000257498478722 1.55269166642683 282.6520927854307 1.306253572847461
0.0094 6366.357391044266 1.000257186656149 1.552608796912201 282.5769582122679 1.299667606465919
0.0095 6366.369003005618 1.000256873764539 1.552525908177032 282.5014804634847 1.293081045961729
0.009600000000000001 6366.380667775908 1.000256559807907 1.552443000158058 282.4256594565949 1.286494173605909
0.0097 6366.39238536787 1.000256244790283 1.55236007279223 282.3494951088463 1.279907270864834
0.0098 6366.404155794276 1.000255928715705 1.552277126016902 282.2729873372031 1.273320618379683
0.009900000000000001 6366.415979067944 1.000255611588219 1.552194159769746 282.1961360583631 1.266734495949053
0.01 6366.427855201729 1.000255293411884 1.552111173988712 282.1189411887584 1.260149182510109
0.0101 6366.439784208535 1.000254974190765 1.552028168612112 282.0414026445254 1.253564956117333
0.0102 6366.451766101298 1.000254653928939 1.551945143578559 281.963520341564 1.246982093928911
0.0103 6366.463800893005 1.000254332630491 1.551862098826993 281.8852941954668 1.240400872182174
0.0104 6366.475888596678 1.000254010299515 1.551779034296706 281.8067241215898 1.233821566181142
0.0105 6366.488029225383 1.000253686940115 1.551695949927233 281.7278100350112 1.227244450274687
0.0106 6366.500222792224 1.000253362556403 1.551612845658537 281.6485518505432 1.220669797839279
0.0107 6366.512469310348 1.000253037152501 1.551529721430833 281.5689494827378 1.214097881261336
0.0108 6366.524768792941 1.00025271073254 1.551446577184665 281.4890028458811 1.207528971918695
0.0109 6366.53712125323 1.000252383300658 1.551363412860939 281.408711854005 1.200963340163652
0.011 6366.549526704481 1.000252054861002 1.551280228400834 281.3280764208752 1.194401255304165
0.0111 6366.56198516 1.00025172541773 1.551197023745892 281.2470964599974 1.187842985586634
0.0112 6366.574496633133 1.000251394975007 1.551113798837944 281.1657718846349 1.181288798179724
0.0113 6366.587061137265 1.000251063537004 1.551030553619186 281.0841026077791 1.174738959154487
0.0114 6366.59967868582 1.000250731107905 1.550947288032094 281.0020885421731 1.168193733468901
0.0115 6366.612349292261 1.000250397691897 1.5508640020195 280.9197296003057 1.161653384950132
0.0116 6366.62507297009 1.00025006329318 1.550780695524543 280.8370256944175 1.155118176277862
0.0117 6366.637849732848 1.000249727915959 1.550697368490667 280.7539767364891 1.148588368966338
0.0118 6366.650679594112 1.000249391564447 1.550614020861677 280.6705826382703 1.142064223349794
0.0119 6366.663562567502 1.000249054242867 1.550530652581682 280.586843311239 1.135545998562431
0.012 6366.676498666669 1.000248715955447 1.550447263595113 280.5027586666546 1.129033952525918
0.0121 6366.689487905306 1.000248376706425 1.55036385384674 280.4183286155102 1.122528341929179
0.0122 6366.702530297145 1.000248036500044 1.550280423281613 280.3335530685566 1.116029422213842
0.0123 6366.715625855952 1.000247695340558 1.550196971845182 280.2484319363142 1.109537447558868
0.0124 6366.728774595529 1.000247353232225 1.550113499483134 280.1629651290608 1.103052670863492
0.0125 6366.74197652972 1.000247010179312 1.550030006141535 280.0771525568201 1.096575343730327
0.0126 6366.755231672401 1.000246666186094 1.549946491766764 279.9909941293912 1.090105716451733
0.0127 6366.768540037488 1.00024632125685 1.549862956305487 279.9044897563248 1.083644037992289
0.0128 6366.781901638931 1.000245975395869 1.549779399704764 279.817639346947 1.077190555974965
0.0129 6366.795316490716 1.000245628607446 1.549695821911905 279.7304428103474 1.070745516664761
0.013 6366.808784606866 1.000245280895883 1.549612222874587 279.6429000553734 1.064309164952957
0.0131 6366.82230600144 1.000244932265489 1.549528602540785 279.5550109906416 1.057881744342802
0.0132 6366.83588068853 1.000244582720578 1.549444960858841 279.4667755245558 1.05146349693576
0.0133 6366.849508682265 1.000244232265473 1.549361297777337 279.3781935652777 1.045054663414442
0.0134 6366.863189996811 1.000243880904501 1.549277613245258 279.2892650207262 1.038655483027879
0.0135 6366.876924646366 1.000243528641997 1.549193907211915 279.1999897986196 1.032266193579896
0.0136 6366.890712645162 1.000243175482303 1.549110179626839 279.1103678064454 1.025887031412502
0.0137 6366.904554007469 1.000242821429765 1.549026430439997 279.0203989514488 1.019518231390759
0.0138 6366.918448747589 1.000242466488737 1.548942659601615 278.9300831406739 1.013160026891559
0.0139 6366.932396879856 1.000242110663579 1.548858867062268 278.8394202809344 1.006812649787516
0.014 6366.946398418643 1.000241753958655 1.54877505277284 278.7484102788193 1.000476330433532
0.0141 6366.960453378353 1.000241396378337 1.54869121668454 278.6570530407047 0.9941512976539308
0.0142 6366.974561773424 1.000241037927001 1.548607358748883 278.5653484727421 0.9878377787280818
0.0143 6366.988723618326 1.000240678609031 1.548523478917743 278.4732964808821 0.981535999378647
0.0144 6367.002938927562 1.000240318428815 1.548439577143274 278.3808969708447 0.975246183756315
0.0145 6367.017207715669 1.000239957390746 1.548355653377993 278.2881498481487 0.9689685544287563
0.0146 6367.031529997216 1.000239595499224 1.54827170757469 278.1950550180944 0.9627033323665021
0.0147 6367.045905786804 1.000239232758652 1.548187739686532 278.1016123857752 0.9564507369309981
0.0148 6367.060335099068 1.000238869173442 1.548103749666931 278.0078218560596 0.95021098586084
0.0149 6367.074817948673 1.000238504748007 1.548019737469685 277.9136833336273 0.9439842952617212
0.015 6367.089354350317 1.000238139486768 1.547935703048892 277.819196722939 0.9377708795922067
0.0151 6367.103944318729 1.000237773394149 1.547851646358966 277.7243619282602 0.9315709516532117
0.0152 6367.11858786867 1.000237406474581 1.547767567354646 277.629178853644 0.9253847225749134
0.0153 6367.133285014933 1.000237038732498 1.547683465990978 277.5336474029363 0.9192124018054014
0.0154 6367.148035772339 1.00023667017234 1.547599342223333 277.4377674797937 0.9130541971002402
0.0155 6367.162840155744 1.00023630079855 1.547515196007418 277.3415389876662 0.9069103145099121
0.0156 6367.17769818003 1.000235930615578 1.547431027299229 277.2449618298027 0.9007809583689674
0.0157 6367.192609860114 1.000235559627876 1.547346836055087 277.1480359092569 0.8946663312853401
0.0158 6367.207575210941 1.000235187839901 1.54726262223166 277.0507611288816 0.8885666341290863
0.0159 6367.222594247487 1.000234815256116 1.54717838578589 276.9531373913345 0.8824820660220499
0.016 6367.237666984756 1.000234441880986 1.547094126675074 276.8551645990841 0.8764128243276935
0.0161 6367.252793437783 1.000234067718982 1.547009844856805 276.7568426544098 0.8703591046407325
0.0162 6367.267973621631 1.000233692774577 1.546925540289011 276.6581714593957 0.8643211007765911
0.0163 6367.283207551396 1.000233317052249 1.546841212929903 276.5591509159252 0.8582990047610519
0.0164 6367.298495242199 1.000232940556481 1.546756862738013 276.4597809257042 0.8522930068218851
0.0165 6367.313836709192 1.000232563291758 1.546672489672254 276.3600613902494 0.8463032953784816
0.0166 6367.329231967556 1.00023218526257 1.546588093691772 276.2599922108883 0.8403300570324029
0.0167 6367.344681032496 1.000231806473409 1.546503674756064 276.1595732887771 0.8343734765591655
0.0168 6367.360183919252 1.000231426928773 1.546419232824934 276.058804524865 0.8284337368970439
0.0169 6367.375740643087 1.000231046633161 1.546334767858513 275.9576858199356 0.8225110191406303
0.017 6367.391351219295 1.000230665591077 1.546250279817238 275.8562170745835 0.8166055025307147
0.0171 6367.407015663196 1.000230283807027 1.54616576866185 275.7543981892258 0.810717364446453
0.0172 6367.422733990138 1.000229901285521 1.546081234353413 275.6522290641022 0.804846780397021
0.0173 6367.438506215495 1.000229518031073 1.545996676853308 275.5497095992813 0.7989939240137948
0.0174 6367.45433235467 1.000229134048198 1.545912096123228 275.4468396946421 0.7931589670413733
0.0175 6367.470212423093 1.000228749341415 1.545827492125164 275.3436192498983 0.7873420793311567
0.0176 6367.486146436217 1.000228363915248 1.54574286482141 275.2400481645863 0.7815434288330845
0.0177 6367.502134409528 1.000227977774219 1.545658214174627 275.1361263380708 0.7757631815885775
0.0178 6367.518176358532 1.000227590922857 1.545573540147697 275.0318536695394 0.7700015017230093
0.0179 6367.534272298765 1.000227203365691 1.545488842703908 274.9272300580259 0.7642585514400031
0.018 6367.550422245787 1.000226815107256 1.545404121806782 274.8222554023868 0.7585344910133013
0.0181 6367.566626215184 1.000226426152084 1.545319377420209 274.716929601307 0.7528294787804782
0.0182 6367.582884222567 1.000226036504715 1.54523460950832 274.6112525533121 0.7471436711371545
0.0183 6367.599196283576 1.000225646169687 1.545149818035613 274.5052241567558 0.741477222530122
0.0184 6367.615562413871 1.000225255151544 1.545065002966872 274.3988443098386 0.7358302854522575
0.0185 6367.631982629139 1.000224863454829 1.544980164267197 274.2921129105952 0.7302030104360403
0.0186 6367.648456945094 1.000224471084089 1.544895301901974 274.1850298568887 0.7245955460476061
0.0187 6367.664985377471 1.000224078043873 1.544810415836906 274.0775950464407 0.719008038882848
0.0188 6367.681567942032 1.00022368433873 1.544725506038 273.9698083767952 0.7134406335603082
0.0189 6367.698204654562 1.000223289973212 1.544640572471574 273.8616697453484 0.7078934727176688
0.019 6367.714895530869 1.000222894951875 1.544555615104259 273.7531790493489 0.7023666970068796
0.0191 6367.731640586788 1.000222499279273 1.544470633902962 273.6443361858795 0.6968604450885937
0.0192 6367.748439838172 1.000222102959964 1.544385628834918 273.5351410518814 0.6913748536289118
0.0193 6367.765293300904 1.000221705998507 1.544300599867645 273.4255935441241 0.6859100572936347
0.0194 6367.782200990886 1.000221308399461 1.54421554696899 273.3156935592414 0.6804661887459884
0.0195 6367.799162924044 1.00022091016739 1.544130470107062 273.2054409937131 0.67504337864187
0.0196 6367.816179116328 1.000220511306857 1.544045369250308 273.0948357438655 0.6696417556261964
0.0197 6367.83324958371 1.000220111822424 1.543960244367456 272.9838777058829 0.6642614463300254
0.0198 6367.850374342183 1.000219711718659 1.543875095427541 272.872566775808 0.6589025753672897
0.0199 6367.867553407764 1.000219311000127 1.543789922399897 272.7609028495352 0.6535652653314517
0.02 6367.884786796491 1.000218909671397 1.54370472525415 272.6488858228057 0.6482496367923726
0.0201 6367.902074524426 1.000218507737038 1.543619503960224 272.5365155912303 0.6429558082947875
0.0202 6367.91941660765 1.000218105201618 1.543534258488327 272.4237920502723 0.6376838963550034
