#theta R n z T P_w
0 6365.5 1.000315047190823 1.560324351282931 288.15 9.378450598578642
0.0001 6365.506698014227 1.000314766416516 1.560250933712858 288.1064629075221 9.352190346647262
0.0002 6365.513442774765 1.000314483997136 1.560177487214018 288.0626219640257 9.325812105130984
0.0003 6365.520234300253 1.000314199938032 1.560104011611679 288.018477048356 9.299317024069586
0.0004 6365.52707260944 1.000313914244582 1.560030506731924 287.9740280386371 9.272706257684714
0.0005 6365.533957721192 1.00031362692219 1.55995697240178 287.9292748122542 9.245980964299534
0.0006000000000000001 6365.540889654482 1.000313337976286 1.559883408449112 287.8842172458652 9.21914230627592
0.0007 6365.547868428399 1.000313047412326 1.559809814702767 287.8388552154069 9.192191449947712
0.0008 6365.554894062137 1.000312755235795 1.559736190992382 287.7931885961065 9.165129565557175
0.0009000000000000001 6365.561966575006 1.000312461452199 1.559662537148516 287.7472172624583 9.13795782717018
0.001 6365.569085986423 1.000312166067075 1.559588853002637 287.7009410882473 9.110677412619129
0.0011 6365.576252315913 1.000311869085982 1.559515138387026 287.6543599465666 9.083289503442026
0.0012 6365.58346558311 1.000311570514506 1.559441393134944 287.6074737097882 9.055795284793383
0.0013 6365.590725807757 1.000311270358258 1.559367617080436 287.5602822495806 9.028195945382782
0.0014 6365.598033009705 1.000310968622872 1.559293810058546 287.5127854369206 9.000492677409639
0.0015 6365.605387208908 1.000310665314011 1.559219971905093 287.4649831420992 8.972686676494151
0.0016 6365.612788425431 1.00031036043736 1.559146102456845 287.4168752346981 8.944779141590825
0.0017 6365.620236679441 1.000310053998627 1.559072201551445 287.3684615836308 8.916771274939636
0.0018 6365.627731991213 1.000309746003547 1.558998269027388 287.3197420571136 8.888664281975633
0.0019 6365.635274381125 1.000309436457879 1.55892430472413 287.2707165226883 8.860459371269217
0.002 6365.642863869658 1.000309125367404 1.558850308481922 287.2213848472232 8.832157754452435
0.0021 6365.650500477399 1.000308812737927 1.558776280141956 287.1717468969067 8.803760646141683
0.0022 6365.658184225037 1.000308498575279 1.558702219546296 287.121802537259 8.775269263870362
0.0023 6365.665915133361 1.000308182885311 1.558628126537928 287.071551633156 8.746684828027952
0.0024 6365.673693223263 1.0003078656739 1.558554000960691 287.0209940487879 8.71800856176182
0.0025 6365.681518515739 1.000307546946942 1.558479842659317 286.9701296476945 8.689241690922653
0.0026 6365.689391031883 1.000307226710361 1.558405651479401 286.9189582927596 8.660385443986071
0.0027 6365.697310792889 1.000306904970098 1.558331427267495 286.8674798462224 8.631441051984035
0.0028 6365.70527782005 1.000306581732121 1.558257169871031 286.8156941696719 8.602409748426096
0.0029 6365.713292134761 1.000306257002417 1.558182879138253 286.7636011240528 8.573292769227081
0.003 6365.721353758512 1.000305930786995 1.558108554918402 286.7112005696712 8.544091352634586
0.0031 6365.729462712893 1.000305603091889 1.558034197061565 286.6584923661948 8.514806739152963
0.0032 6365.737619019589 1.00030527392315 1.557959805418736 286.6054763726705 8.485440171476954
0.0033 6365.745822700385 1.000304943286854 1.557885379841772 286.5521524474951 8.455992894398936
0.0034 6365.754073777159 1.000304611189094 1.557810920183516 286.4985204484682 8.426466154761799
0.0035 6365.762372271886 1.000304277635989 1.557736426297586 286.444580232739 8.396861201352843
0.0036 6365.770718206636 1.000303942633674 1.557661898038617 286.3903316568657 8.367179284859432
0.0037 6365.779111603572 1.000303606188306 1.55758733526208 286.3357745767797 8.337421657772422
0.0038 6365.787552484953 1.000303268306064 1.557512737824408 286.2809088478037 8.307589574318692
0.0039 6365.796040873131 1.000302928993144 1.557438105582856 286.2257343246514 8.277684290383787
0.004 6365.804576790548 1.000302588255764 1.557363438395611 286.1702508614393 8.247707063440817
0.0041 6365.81316025974 1.000302246100161 1.557288736121837 286.1144583116869 8.217659152472786
0.004200000000000001 6365.821791303337 1.000301902532591 1.557213998621534 286.0583565283108 8.187541817891621
0.0043 6365.830469944055 1.000301557559329 1.557139225755615 286.0019453636422 8.157356321469813
0.0044 6365.839196204704 1.00030121118667 1.557064417385935 285.9452246694212 8.127103926259196
0.004500000000000001 6365.847970108184 1.000300863420926 1.556989573375246 285.8881942968027 8.09678589651595
0.0046 6365.856791677482 1.000300514268428 1.556914693587242 285.8308540963679 8.06640349762861
0.0047 6365.865660935674 1.000300163735528 1.556839777886454 285.7732039181191 8.035957996036508
0.0048 6365.874577905926 1.000299811828591 1.556764826138412 285.7152436114787 8.005450659151329
0.0049 6365.883542611491 1.000299458554004 1.55668983820953 285.656973025308 7.974882755287853
0.005 6365.892555075708 1.000299103918169 1.556614813967133 285.5983920079005 7.944255553582156
0.0051 6365.901615322002 1.000298747927508 1.556539753279509 285.5395004069882 7.913570323915925
0.005200000000000001 6365.910723373884 1.000298390588457 1.556464656015812 285.4802980697531 7.882828336843742
0.0053 6365.919879254952 1.000298031907471 1.556389522046147 285.4207848428099 7.852030863504932
0.0054 6365.929082988887 1.000297671891021 1.556314351241574 285.3609605722353 7.821179175559892
0.005500000000000001 6365.938334599453 1.000297310545595 1.556239143474024 285.3008251035561 7.790274545104864
0.0056 6365.9476341105 1.000296947877697 1.556163898616364 285.2403782817495 7.759318244592827
0.0057 6365.95698154596 1.000296583893846 1.556088616542437 285.1796199512604 7.728311546763411
0.0058 6365.966376929846 1.000296218600579 1.556013297126996 285.1185499560019 7.697255724563616
0.0059 6365.975820286253 1.000295852004445 1.555937940245689 285.0571681393548 7.666152051068482
0.006 6365.985311639359 1.000295484112012 1.55586254577513 284.995474344168 7.6350017994018
0.0061 6365.994851013419 1.000295114929862 1.555787113592879 284.9334684127761 7.603806242665693
0.006200000000000001 6366.004438432772 1.000294744464589 1.555711643577398 284.8711501869815 7.572566653852277
0.0063 6366.014073921834 1.000294372722806 1.555636135608113 284.8085195080783 7.541284305776164
0.0064 6366.0237575051 1.000293999711138 1.555560589565385 284.7455762168523 7.509960470994968
0.006500000000000001 6366.033489207143 1.000293625436224 1.555485005330496 284.6823201535689 7.478596421723983
0.0066 6366.043269052614 1.000293249904717 1.555409382785721 284.6187511580086 7.447193429774355
0.0067 6366.05309706624 1.000292873123285 1.555333721814205 284.554869069438 7.415752766458937
0.0068 6366.062973272826 1.000292495098607 1.555258022300082 284.4906737266327 7.384275702524558
0.006900000000000001 6366.072897697251 1.000292115837378 1.555182284128404 284.4261649678659 7.352763508066786
0.007 6366.082870364471 1.000291735346303 1.555106507185233 284.3613426309379 7.321217452464969
0.0071 6366.092891299515 1.000291353632103 1.555030691357505 284.2962065531523 7.289638804291276
0.007200000000000001 6366.102960527486 1.000290970701509 1.554954836533143 284.2307565713398 7.258028831242844
0.0073 6366.113078073561 1.000290586561264 1.55487894260099 284.1649925218525 7.226388800059567
0.0074 6366.12324396299 1.000290201218125 1.554803009450895 284.0989142405632 7.194719976444826
0.007500000000000001 6366.133458221095 1.00028981467886 1.554727036973591 284.032521562884 7.163023624994773
0.0076 6366.143720873269 1.000289426950246 1.554651025060852 283.9658143237538 7.131301009113479
0.0077 6366.154031944976 1.000289038039076 1.554574973605306 283.8987923576564 7.099553390942273
0.007800000000000001 6366.164391461752 1.00028864795215 1.55449888250061 283.8314554986144 7.067782031277851
0.007900000000000001 6366.1747994492 1.00028825669628 1.554422751641343 283.7638035802014 7.0359881894989
0.008 6366.185255932995 1.000287864278289 1.554346580923061 283.6958364355354 7.004173123484383
0.0081 6366.195760938876 1.000287470705011 1.554270370242284 283.6275538973031 6.972338089545796
0.008200000000000001 6366.206314492656 1.000287075983287 1.554194119496482 283.5589557977358 6.940484342337347
0.0083 6366.216916620212 1.000286680119971 1.554117828584063 283.4900419686218 6.908613134782928
0.008400000000000001 6366.227567347488 1.000286283121926 1.554041497404434 283.4208122413291 6.876725718008507
0.008500000000000001 6366.238266700493 1.000285884996022 1.553965125857962 283.3512664467947 6.844823341258176
0.0086 6366.249014705303 1.000285485749141 1.553888713845963 283.2814044155297 6.812907251818568
0.008700000000000001 6366.259811388059 1.000285085388172 1.553812261270723 283.2112259776135 6.780978694937986
0.008800000000000001 6366.270656774967 1.000284683920012 1.553735768035504 283.1407309627119 6.749038913756478
0.0089 6366.281550892294 1.000284281351569 1.553659234044511 283.0699192000887 6.7170891492332
0.009000000000000001 6366.292493766372 1.000283877689756 1.553582659202952 282.998790518582 6.685130640057928
0.0091 6366.303485423595 1.000283472941496 1.553506043416971 282.9273447466338 6.653164622586788
0.0092 6366.314525890418 1.000283067113719 1.553429386593717 282.8555817122841 6.621192330762043
0.009300000000000001 6366.325615193359 1.000282660213361 1.55335268864126 282.783501243165 6.589214996032179
0.0094 6366.336753358997 1.000282252247366 1.553275949468694 282.7111031665185 6.557233847282658
0.0095 6366.347940413968 1.000281843222685 1.553199168986079 282.638387309208 6.525250110764107
0.009600000000000001 6366.35917638497 1.000281433146277 1.553122347104366 282.5653534976954 6.493265010005062
0.0097 6366.370461298758 1.000281022025103 1.553045483735604 282.4920015580755 6.461279765750948
0.0098 6366.381795182147 1.000280609866135 1.552968578792738 282.4183313160473 6.429295595874716
0.009900000000000001 6366.393178062007 1.000280196676347 1.552891632189705 282.3443425969552 6.397313715318626
0.01 6366.404609965269 1.000279782462721 1.552814643841406 282.2700352257533 6.365335336002825
0.0101 6366.416090918917 1.000279367232243 1.552737613663751 282.1954090270409 6.333361666764888
0.0102 6366.42762094999 1.000278950991905 1.5526605415736 282.1204638250628 6.301393913284129
0.0103 6366.439200085586 1.000278533748701 1.552583427488786 282.0451994436911 6.269433277998648
0.0104 6366.450828352853 1.000278115509635 1.552506271328134 281.9696157064553 6.237480960042801
0.0105 6366.462505778996 1.000277696281709 1.552429073011458 281.8937124365242 6.20553815516475
0.0106 6366.474232391272 1.000277276071934 1.552351832459496 281.8174894567295 6.173606055661794
0.0107 6366.486008216991 1.000276854887321 1.552274549594054 281.7409465895602 6.141685850303424
0.0108 6366.497833283514 1.000276432734888 1.552197224337846 281.6640836571622 6.109778724257174
0.0109 6366.509707618254 1.000276009621654 1.552119856614559 281.5869004813507 6.077885859019667
0.011 6366.521631248675 1.000275585554641 1.552042446348907 281.5093968836094 6.046008432342968
0.0111 6366.533604202293 1.000275160540874 1.551964993466583 281.4315726850972 6.014147618163674
0.0112 6366.54562650667 1.000274734587382 1.551887497894192 281.3534277066477 5.982304586529848
0.0113 6366.557698189417 1.000274307701194 1.55180995955942 281.2749617687872 5.950480503535458
0.0114 6366.569819278197 1.000273879889343 1.551732378390844 281.1961746917226 5.91867653124305
0.0115 6366.581989800717 1.000273451158861 1.551654754318089 281.1170662953417 5.886893827611627
0.0116 6366.594209784732 1.000273021516786 1.551577087271697 281.0376363992426 5.85513354643667
0.0117 6366.606479258046 1.000272590970152 1.551499377183266 280.9578848227042 5.823396837266706
0.0118 6366.618798248503 1.000272159525998 1.551421623985287 280.8778113847274 5.791684845348608
0.0119 6366.631166784 1.000271727191361 1.551343827611317 280.7974159039999 5.759998711542548
0.012 6366.643584892472 1.00027129397328 1.551265987995828 280.7166981989316 5.728339572265524
0.0121 6366.656052601899 1.000270859878795 1.551188105074297 280.6356580876544 5.696708559421019
0.0122 6366.668569940309 1.000270424914944 1.551110178783198 280.554295387993 5.665106800317607
0.0123 6366.681136935767 1.000269989088765 1.551032209059995 280.4726099175176 5.633535417620193
0.0124 6366.693753616382 1.000269552407297 1.550954195843042 280.390601493515 5.601995529269305
0.0125 6366.706420010308 1.000269114877576 1.550876139071792 280.3082699329997 5.570488248416916
0.0126 6366.719136145734 1.000268676506639 1.55079803868662 280.2256150527322 5.539014683364784
0.0127 6366.731902050891 1.00026823730152 1.550719894628878 280.142636669207 5.50757593749186
0.0128 6366.744717754053 1.000267797269254 1.550641706840875 280.0593345986584 5.476173109188898
0.0129 6366.757583283529 1.000267356416872 1.550563475265974 279.9757086570606 5.444807291791232
0.013 6366.770498667669 1.000266914751402 1.550485199848439 279.8917586601514 5.413479573520796
0.0131 6366.783463934859 1.000266472279872 1.550406880533549 279.8074844234142 5.38219103741299
0.0132 6366.796479113523 1.000266029009307 1.550328517267581 279.722885762102 5.350942761259439
0.0133 6366.809544232121 1.000265584946728 1.550250109997714 279.6379624912137 5.319735817533617
0.0134 6366.822659319149 1.000265140099155 1.550171658672175 279.5527144255292 5.288571273338758
0.0135 6366.835824403141 1.000264694473602 1.550093163240147 279.4671413795862 5.257450190334379
0.0136 6366.84903951266 1.000264248077081 1.550014623651768 279.3812431677096 5.226373624682762
0.0137 6366.862304676308 1.000263800916601 1.549936039858181 279.2950196039995 5.195342626980721
0.0138 6366.875619922717 1.000263352999165 1.54985741181148 279.2084705023375 5.164358242198327
0.0139 6366.888985280557 1.000262904331774 1.54977873946473 279.1215956763803 5.133421509613862
0.014 6366.902400778523 1.000262454921421 1.549700022772011 279.0343949396014 5.102533462766047
0.0141 6366.915866445347 1.000262004775098 1.549621261688295 278.9468681052439 5.071695129375156
0.0142 6366.92938230979 1.000261553899789 1.549542456169602 278.8590149863675 5.040907531298231
0.0143 6366.942948400643 1.000261102302476 1.549463606172868 278.7708353958191 5.010171684457574
0.0144 6366.956564746729 1.000260649990131 1.549384711656034 278.6823291462623 4.979488598790533
0.0145 6366.970231376897 1.000260196969725 1.549305772577989 278.5934960501717 4.948859278187292
0.0146 6366.983948320027 1.000259743248219 1.549226788898578 278.5043359198265 4.918284720429271
0.0147 6366.997715605025 1.000259288832569 1.54914776057865 278.4148485673348 4.887765917138184
0.0148 6367.011533260827 1.000258833729727 1.549068687579977 278.3250338046213 4.857303853713385
0.0149 6367.025401316394 1.000258377946635 1.548989569865294 278.2348914434391 4.826899509277867
0.015 6367.039319800712 1.000257921490227 1.548910407398365 278.1444212953701 4.796553856620723
0.0151 6367.053288742795 1.000257464367436 1.548831200143798 278.0536231718305 4.766267862142155
0.0152 6367.06730817168 1.00025700658518 1.548751948067295 277.962496884083 4.736042485800934
0.0153 6367.081378116427 1.000256548150373 1.548672651135426 277.8710422432245 4.705878681054545
0.0154 6367.095498606123 1.000256089069923 1.548593309315704 277.7792590601983 4.675777394807772
0.0155 6367.109669669877 1.000255629350726 1.548513922576664 277.6871471458002 4.645739567359829
0.0156 6367.123891336819 1.00025516899967 1.548434490887771 277.5947063106777 4.61576613235011
0.0157 6367.138163636103 1.000254708023637 1.548355014219418 277.5019363653308 4.585858016704536
0.0158 6367.152486596901 1.000254246429498 1.548275492542994 277.4088371201414 4.556016140591974
0.0159 6367.166860248411 1.000253784224116 1.548195925830769 277.3154083853314 4.526241417358384
0.016 6367.181284619845 1.000253321414342 1.54811631405603 277.2216499710047 4.496534753488202
0.0161 6367.195759740439 1.000252858007021 1.548036657192993 277.127561687147 4.466897048552893
0.0162 6367.210285639445 1.000252394008987 1.547956955216772 277.033143343608 4.437329195154597
0.0163 6367.224862346136 1.000251929427062 1.547877208103478 276.9383947501191 4.407832078881619
0.0164 6367.239489889799 1.00025146426806 1.547797415830154 276.8433157163053 4.378406578262539
0.0165 6367.254168299742 1.000250998538784 1.547717578374793 276.7479060516793 4.349053564715407
0.0166 6367.268897605286 1.000250532246024 1.547637695716247 276.6521655656414 4.319773902499453
0.0167 6367.283677835771 1.000250065396563 1.547557767834404 276.5560940674917 4.290568448671038
0.0168 6367.298509020551 1.00024959799717 1.547477794710038 276.4596913664176 4.261438053033028
0.0169 6367.313391188994 1.000249130054603 1.547397776324849 276.3629572715416 4.232383558102647
0.017 6367.328324370482 1.000248661575608 1.547317712661498 276.2658915918681 4.203405799049603
0.0171 6367.343308594412 1.000248192566921 1.547237603703544 276.1684941363245 4.174505603663429
0.0172 6367.358343890193 1.000247723035263 1.54715744943546 276.0707647137436 4.145683792303699
0.0173 6367.373430287247 1.000247252987346 1.547077249842706 275.9727031328933 4.116941177864927
0.0174 6367.388567815007 1.000246782429866 1.546997004911592 275.8743092024528 4.088278565726403
0.0175 6367.403756502918 1.000246311369509 1.546916714629378 275.775582731036 4.059696753716626
0.0176 6367.418996380433 1.000245839812947 1.546836378984257 275.6765235271863 4.03119653206971
0.0177 6367.434287477019 1.000245367766839 1.546755997965297 275.5771313993758 4.002778683384248
0.0178 6367.449629822151 1.000244895237828 1.54667557156252 275.4774061560178 3.974443982586239
0.0179 6367.465023445313 1.000244422232549 1.546595099766809 275.3773476054661 3.946193196889276
0.018 6367.480468375995 1.000243948757618 1.546514582570028 275.2769555560334 3.918027085760418
0.0181 6367.495964643696 1.000243474819638 1.546434019964863 275.1762298159732 3.889946400876745
0.0182 6367.511512277925 1.000243000425201 1.546353411944946 275.0751701934859 3.861951886089362
0.0183 6367.527111308195 1.00024252558088 1.546272758504821 274.9737764967302 3.834044277389692
0.0184 6367.542761764024 1.000242050293237 1.546192059639902 274.8720485338416 3.806224302878011
0.0185 6367.558463674938 1.000241574568816 1.546111315346504 274.7699861129021 3.778492682719707
0.0186 6367.574217070467 1.000241098414149 1.546030525621832 274.6675890419641 3.750850129116948
0.0187 6367.590021980144 1.000240621835749 1.545949690464009 274.5648571290625 3.723297346277659
0.0188 6367.605878433507 1.000240144840118 1.545868809872 274.4617901822024 3.695835030378876
0.0189 6367.621786460098 1.000239667433739 1.545787883845691 274.3583880093655 3.668463869535657
0.019 6367.637746089459 1.00023918962308 1.545706912385804 274.2546504185156 3.641184543770691
0.0191 6367.653757351138 1.000238711414593 1.545625895494011 274.1505772176046 3.613997724984622
0.0192 6367.66982027468 1.000238232814714 1.545544833172777 274.0461682145786 3.586904076927078
0.0193 6367.685934889635 1.000237753829862 1.545463725425521 273.9414232173721 3.559904255165375
0.0194 6367.702101225551 1.00023727446644 1.545382572256436 273.8363420339191 3.5329989070586
0.0195 6367.718319311976 1.000236794730833 1.545301373670696 273.730924472154 3.506188671729342
0.0196 6367.73458917846 1.000236314629412 1.545220129674216 273.6251703400111 3.479474180036221
0.0197 6367.750910854548 1.000235834168525 1.545138840273868 273.5190794454364 3.45285605455016
0.0198 6367.767284369786 1.000235353354509 1.545057505477345 273.4126515963939 3.426334909529859
0.0199 6367.783709753716 1.000234872193679 1.544976125293188 273.3058866008472 3.399911350892176
0.02 6367.800187035878 1.000234390692334 1.544894699730793 273.1987842667899 3.373585976195069
0.0201 6367.816716245809 1.000233908856754 1.544813228800405 273.0913444022389 3.347359374612415
0.0202 6367.833297413042 1.000233426693204 1.54473171251309 272.983566815229 3.321232126909697
0.0203 6367.849930567104 1.000232944207926 1.544650150880811 272.8754513138246 3.295204805424805
