#theta R n z T P_w
0 6365.5 1.000282074221218 1.560324351282931 288.15 2.046207403326249
0.0001 6365.506698014227 1.000281875813585 1.560243129290256 288.1064629075221 2.040477893813948
0.0002 6365.513447743239 1.000281676010999 1.560161895002122 288.0625896689443 2.034718406819525
0.0003 6365.520249195118 1.000281474816263 1.56008064832185 288.018380231735 2.02892923396446
0.0004 6365.527102378007 1.000281272232198 1.559999389153147 287.9738345429549 2.023110668056791
0.0005 6365.534007300115 1.00028106826164 1.559918117400158 287.9289525492508 2.017263003069163
0.0006000000000000001 6365.540963969714 1.000280862907444 1.559836832967486 287.8837341968614 2.011386534118339
0.0007 6365.547972395136 1.000280656172484 1.559755535759999 287.8381794316177 2.00548155744386
0.0008 6365.555032584779 1.000280448059649 1.559674225683129 287.7922881989369 1.999548370385867
0.0009000000000000001 6365.562144547101 1.000280238571847 1.559592902642627 287.746060443846 1.993587271366678
0.001 6365.569308290623 1.000280027712002 1.559511566544619 287.6994961109521 1.9875985598654
0.0011 6365.576523823926 1.000279815483055 1.559430217295701 287.6525951444781 1.981582536400873
0.0012 6365.583791155657 1.000279601887965 1.559348854802799 287.6053574882275 1.975539502505404
0.0013 6365.591110294519 1.000279386929709 1.559267478973245 287.5577830856249 1.969469760708309
0.0014 6365.598481249279 1.000279170611279 1.559186089714801 287.5098718796875 1.963373614510286
0.0015 6365.605904028764 1.000278952935685 1.559104686935473 287.461623813036 1.957251368363033
0.0016 6365.61337864186 1.000278733905952 1.559023270543838 287.4130388279071 1.951103327648779
0.0017 6365.620905097519 1.000278513525125 1.558941840448673 287.3641168661296 1.944929798655274
0.0018 6365.628483404746 1.000278291796263 1.558860396559234 287.3148578691538 1.938731088557437
0.0019 6365.636113572609 1.000278068722443 1.558778938785154 287.2652617780399 1.932507505393725
0.002 6365.643795610236 1.000277844306758 1.558697467036331 287.2153285334638 1.926259358044674
0.0021 6365.651529526814 1.000277618552316 1.558615981223204 287.1650580757113 1.919986956209909
0.0022 6365.659315331588 1.000277391462245 1.558534481256372 287.1144503446779 1.913690610385855
0.0023 6365.667153033864 1.000277163039685 1.558452967046979 287.063505279881 1.907370631844859
0.0024 6365.675042643006 1.000276933287796 1.558371438506425 287.0122228204594 1.901027332612786
0.0025 6365.682984168436 1.000276702209751 1.558289895546506 286.9606029051678 1.894661025445839
0.0026 6365.690977619633 1.00027646980874 1.558208338079389 286.9086454723882 1.88827202380953
0.0027 6365.699023006135 1.000276236087971 1.558126766017595 286.8563504601246 1.881860641855419
0.0028 6365.707120337539 1.000276001050665 1.558045179273969 286.8037178059966 1.875427194397816
0.0029 6365.715269623498 1.00027576470006 1.557963577761741 286.7507474472631 1.868971996894064
0.003 6365.723470873723 1.000275527039411 1.55788196139449 286.6974393207987 1.862495365419002
0.0031 6365.731724097983 1.000275288071986 1.557800330086151 286.6437933631117 1.855997616644444
0.0032 6365.740029306101 1.00027504780107 1.557718683750984 286.5898095103438 1.849479067816452
0.0033 6365.74838650796 1.000274806229964 1.557637022303671 286.5354876982582 1.842940036731165
0.0034 6365.756795713498 1.000274563361984 1.557555345659153 286.4808278622635 1.83638084171487
0.0035 6365.765256932707 1.000274319200461 1.557473653732776 286.4258299374018 1.829801801599759
0.0036 6365.77377017564 1.00027407374874 1.557391946440237 286.3704938583427 1.823203235700402
0.0037 6365.7823354524 1.000273827010184 1.557310223697526 286.3148195594011 1.816585463793005
0.0038 6365.790952773151 1.00027357898817 1.557228485421047 286.2588069745196 1.809948806090421
0.0039 6365.799622148108 1.000273329686088 1.557146731527522 286.2024560372978 1.803293583222763
0.004 6365.808343587543 1.000273079107345 1.557064961933992 286.1457666809687 1.796620116211672
0.0041 6365.817117101785 1.000272827255362 1.556983176557887 286.0887388383989 1.789928726447402
0.004200000000000001 6365.825942701213 1.000272574133575 1.556901375316961 286.0313724421179 1.783219735669339
0.0043 6365.834820396263 1.000272319745436 1.556819558129291 285.9736674242889 1.776493465939573
0.0044 6365.843750197427 1.000272064094408 1.556737724913323 285.9156237167261 1.769750239622001
0.004500000000000001 6365.852732115248 1.000271807183973 1.556655875587835 285.8572412508892 1.762990379358665
0.0046 6365.861766160324 1.000271549017622 1.556574010071975 285.7985199578947 1.756214208048126
0.0047 6365.870852343307 1.000271289598866 1.556492128285158 285.7394597685046 1.749422048821113
0.0048 6365.879990674903 1.000271028931226 1.556410230147227 285.6800606131322 1.74261422501821
0.0049 6365.889181165868 1.000270767018239 1.55632831557833 285.6203224218597 1.73579106016889
0.005 6365.898423827014 1.000270503863456 1.556246384498927 285.5602451244084 1.728952877965136
0.0051 6365.907718669206 1.000270239470441 1.556164436829875 285.4998286501631 1.722100002241159
0.005200000000000001 6365.917065703358 1.000269973842773 1.556082472492293 285.4390729281712 1.715232756950402
0.0053 6365.926464940442 1.000269706984045 1.556000491407704 285.3779778871257 1.708351466140556
0.0054 6365.935916391477 1.000269438897861 1.55591849349798 285.3165434554002 1.701456453934598
0.005500000000000001 6365.945420067535 1.000269169587841 1.555836478685253 285.2547695610195 1.694548044504488
0.0056 6365.954975979744 1.000268899057619 1.555754446892085 285.1926561316658 1.687626562048908
0.0057 6365.964584139277 1.000268627310841 1.555672398041288 285.1302030947016 1.680692330772963
0.0058 6365.974244557361 1.000268354351167 1.555590332056108 285.0674103771529 1.673745674863278
0.0059 6365.983957245276 1.000268080182269 1.555508248860027 285.0042779057084 1.66678691846511
0.006 6365.993722214349 1.000267804807834 1.555426148376956 284.9408056067317 1.659816385660776
0.0061 6366.003539475961 1.000267528231561 1.555344030531124 284.8769934062556 1.652834400446148
0.006200000000000001 6366.013409041542 1.000267250457163 1.555261895247017 284.8128412299756 1.645841286707183
0.0063 6366.023330922572 1.000266971488364 1.555179742449559 284.7483490032799 1.638837368200343
0.0064 6366.033305130582 1.000266691328901 1.555097572063998 284.68351665122 1.631822968526596
0.006500000000000001 6366.043331677151 1.000266409982527 1.555015384015837 284.6183440985159 1.624798411109327
0.0066 6366.05341057391 1.000266127453003 1.554933178231 284.5528312695864 1.617764019174815
0.0067 6366.063541832536 1.000265843744106 1.554850954635736 284.4869780885132 1.61072011572573
0.0068 6366.073725464759 1.000265558859623 1.554768713156601 284.4207844790648 1.603667023521031
0.006900000000000001 6366.083961482354 1.000265272803355 1.554686453720506 284.3542503646962 1.596605065053365
0.007 6366.094249897149 1.000264985579114 1.554604176254713 284.2873756685316 1.589534562524615
0.0071 6366.104590721016 1.000264697190726 1.554521880686808 284.2201603133934 1.582455837826522
0.007200000000000001 6366.114983965879 1.000264407642026 1.554439566944697 284.1526042217851 1.575369212516323
0.0073 6366.125429643707 1.000264116936865 1.554357234956678 284.0847073159024 1.568275007795568
0.0074 6366.13592776652 1.000263825079102 1.554274884651313 284.0164695176221 1.561173544486499
0.007500000000000001 6366.146478346383 1.000263532072609 1.55419251595756 283.9478907485135 1.554065143010962
0.0076 6366.15708139541 1.000263237921272 1.554110128804673 283.8789709298325 1.546950123367513
0.0077 6366.167736925762 1.000262942628985 1.554027723122295 283.8097099825453 1.539828805111628
0.007800000000000001 6366.178444949646 1.000262646199657 1.553945298840329 283.7401078272991 1.532701507330485
0.007900000000000001 6366.189205479317 1.000262348637204 1.553862855889123 283.6701643844393 1.525568548622679
0.008 6366.200018527075 1.000262049945558 1.553780394199252 283.5998795740101 1.518430247076171
0.0081 6366.21088410527 1.000261750128659 1.553697913701714 283.529253315748 1.511286920245698
0.008200000000000001 6366.221802226292 1.00026144919046 1.553615414327793 283.4582855291 1.504138885132642
0.0083 6366.232772902584 1.000261147134923 1.553532896009151 283.3869761332056 1.496986458161377
0.008400000000000001 6366.243796146629 1.000260843966024 1.553450358677749 283.3153250469089 1.489829955158672
0.008500000000000001 6366.254871970959 1.000260539687746 1.55336780226592 283.2433321887642 1.482669691332553
0.0086 6366.26600038815 1.000260234304086 1.553285226706285 283.1709974770241 1.47550598124947
0.008700000000000001 6366.277181410823 1.00025992781905 1.553202631931875 283.0983208296519 1.468339138813899
0.008800000000000001 6366.288415051644 1.000259620236656 1.553120017876012 283.0253021643151 1.461169477246257
0.0089 6366.299701323324 1.000259311560929 1.553037384472381 282.9519413983916 1.453997309062056
0.009000000000000001 6366.311040238619 1.000259001795908 1.552954731654999 282.8782384489754 1.446822946051139
0.0091 6366.322431810328 1.000258690945642 1.552872059358164 282.8041932328709 1.439646699255827
0.0092 6366.333876051292 1.000258379014188 1.552789367516616 282.729805666599 1.432468878950314
0.009300000000000001 6366.345372974403 1.000258066005614 1.55270665606538 282.6550756663786 1.42528979461787
0.0094 6366.356922592589 1.000257751923999 1.552623924939811 282.5800031481689 1.418109754933812
0.0095 6366.368524918826 1.000257436773432 1.55254117407562 282.5045880276333 1.410929067741167
0.009600000000000001 6366.38017996613 1.000257120558009 1.552458403408849 282.4288302201575 1.403748040031548
0.0097 6366.391887747562 1.000256803281838 1.552375612875908 282.3527296408491 1.396566977924413
0.0098 6366.403648276224 1.000256484949037 1.552292802413496 282.2762862045441 1.389386186646975
0.009900000000000001 6366.415461565263 1.000256165563733 1.552209971958696 282.1994998257886 1.382205970511982
0.01 6366.427327627868 1.00025584513006 1.552127121448919 282.1223704188568 1.375026632898957
0.0101 6366.439246477269 1.000255523652166 1.552044250821886 282.044897897751 1.367848476233832
0.0102 6366.451218126737 1.000255201134205 1.551961360015702 281.9670821762073 1.360671801969247
0.0103 6366.463242589587 1.00025487758034 1.551878448968788 281.8889231676843 1.353496910563316
0.0104 6366.475319879174 1.000254552994744 1.551795517619904 281.8104207853684 1.346324101460139
0.0105 6366.487450008894 1.000254227381599 1.55171256590816 281.7315749421917 1.339153673071487
0.0106 6366.499632992184 1.000253900745095 1.551629593773026 281.6523855508029 1.331985922754292
0.0107 6366.511868842525 1.000253573089432 1.551546601154259 281.5728525235903 1.324821146793089
0.0108 6366.524157573433 1.000253244418817 1.551463587992011 281.4929757726881 1.317659640380947
0.0109 6366.536499198469 1.000252914737469 1.551380554226706 281.4127552099525 1.310501697597856
0.011 6366.548893731233 1.000252584049609 1.551297499799192 281.3321907469857 1.303347611393497
0.0111 6366.561341185364 1.000252252359474 1.551214424650605 281.2512822951356 1.296197673567977
0.0112 6366.573841574543 1.000251919671303 1.551131328722448 281.1700297654723 1.289052174750614
0.0113 6366.586394912487 1.000251585989347 1.551048211956522 281.0884330688353 1.281911404385111
0.0114 6366.599001212955 1.000251251317863 1.550965074295002 281.0064921157922 1.274775650707018
0.0115 6366.611660489744 1.000250915661118 1.550881915680426 280.9242068166621 1.267645200727058
0.0116 6366.624372756691 1.000250579023385 1.550798736055613 280.8415770815103 1.260520340211979
0.0117 6366.637138027671 1.000250241408944 1.55071553536377 280.7586028201416 1.253401353665551
0.0118 6366.649956316596 1.000249902822086 1.550632313548451 280.6752839421246 1.246288524312228
0.0119 6366.66282763742 1.000249563267108 1.550549070553471 280.5916203567675 1.239182134076883
0.012 6366.675752004132 1.000249222748312 1.550465806323098 280.5076119731424 1.23208246356872
0.0121 6366.688729430759 1.000248881270011 1.550382520801864 280.4232587000669 1.224989792061801
0.0122 6366.701759931368 1.000248538836524 1.55029921393467 280.3385604461104 1.217904397477722
0.0123 6366.71484352006 1.000248195452177 1.550215885666731 280.2535171196117 1.210826556369409
0.0124 6366.727980210975 1.000247851121303 1.550132535943633 280.1681286286615 1.203756543902074
0.0125 6366.74117001829 1.000247505848243 1.550049164711311 280.0823948811138 1.196694633836793
0.0126 6366.75441295622 1.000247159637342 1.549965771915979 279.9963157845685 1.189641098511786
0.0127 6366.767709039014 1.000246812492956 1.549882357504278 279.9098912464068 1.182596208828217
0.0128 6366.781058280959 1.000246464419446 1.54979892142312 279.8231211737674 1.175560234231267
0.0129 6366.794460696377 1.000246115421178 1.549715463619762 279.7360054735467 1.168533442693331
0.013 6366.807916299628 1.000245765502526 1.549631984041876 279.6485440524165 1.161516100698775
0.0131 6366.821425105106 1.000245414667871 1.549548482637359 279.560736816812 1.154508473226464
0.0132 6366.83498712724 1.0002450629216 1.549464959354525 279.472583672938 1.147510823733871
0.0133 6366.848602380496 1.000244710268106 1.549381414142021 279.3840845267745 1.140523414141329
0.0134 6366.862270879374 1.000244356711786 1.549297846948825 279.295239284071 1.133546504815506
0.0135 6366.875992638407 1.000244002257048 1.549214257724231 279.2060478503525 1.126580354553979
0.0136 6366.889767672168 1.000243646908303 1.549130646417904 279.1165101309074 1.119625220568571
0.0137 6366.903595995259 1.000243290669966 1.54904701297984 279.0266260308171 1.112681358472079
0.0138 6366.917477622319 1.000242933546462 1.548963357360356 278.9363954549266 1.105749022260566
0.0139 6366.931412568019 1.000242575542218 1.548879679510146 278.8458183078741 1.098828464300386
0.014 6366.945400847068 1.000242216661669 1.548795979380196 278.7548944940612 1.09191993531084
0.0141 6366.959442474204 1.000241856909254 1.548712256921857 278.6636239176768 1.085023684351069
0.0142 6366.9735374642 1.00024149628942 1.548628512086831 278.5720064827027 1.078139958805745
0.0143 6366.987685831862 1.000241134806615 1.548544744827123 278.4800420928963 1.071269004369144
0.0144 6367.00188759203 1.000240772465297 1.548460955095113 278.3877306518078 1.06441106503208
0.0145 6367.016142759574 1.000240409269926 1.548377142843471 278.295072062769 1.057566383066777
0.0146 6367.030451349401 1.000240045224966 1.54829330802527 278.2020662288927 1.050735199012825
0.0147 6367.044813376446 1.000239680334891 1.548209450593863 278.1087130531026 1.043917751665462
0.0148 6367.059228855678 1.000239314604175 1.548125570502958 278.015012438092 1.037114278058825
0.0149 6367.073697802099 1.000238948037299 1.548041667706609 277.9209642863588 1.030325013455022
0.015 6367.088220230738 1.000238580638747 1.547957742159212 277.8265685002001 1.023550191330324
0.0151 6367.102796156662 1.000238212413011 1.547873793815459 277.7318249816943 1.01679004336073
0.0152 6367.117425594965 1.000237843364584 1.547789822630433 277.6367336327247 1.010044799410676
0.0153 6367.132108560773 1.000237473497964 1.547705828559523 277.5412943549735 1.003314687519794
0.0154 6367.146845069244 1.000237102817656 1.547621811558442 277.445507049916 0.9965999338898787
0.0155 6367.161635135564 1.000236731328165 1.547537771583262 277.3493716188326 0.9899007628732827
0.0156 6367.176478774952 1.000236359034004 1.547453708590372 277.2528879628143 0.9832173969610668
0.0157 6367.191376002655 1.000235985939688 1.547369622536525 277.1560559827452 0.9765500567697019
0.0158 6367.206326833952 1.000235612049736 1.547285513378774 277.0588755793145 0.9698989610300235
0.0159 6367.22133128415 1.000235237368673 1.547201381074505 276.9613466530221 0.9632643265759495
0.016 6367.236389368589 1.000234861901024 1.547117225581472 276.8634691041729 0.9566463683325785
0.0161 6367.251501102633 1.00023448565132 1.547033046857728 276.7652428328882 0.9500452993056883
0.0162 6367.266666501679 1.000234108624097 1.546948844861681 276.6666677390889 0.9434613305694306
0.0163 6367.281885581152 1.000233730823892 1.546864619552054 276.5677437225121 0.9368946712566166
0.0164 6367.297158356506 1.000233352255246 1.546780370887913 276.4684706827119 0.9303455285479878
0.0165 6367.312484843223 1.000232972922704 1.546696098828645 276.3688485190531 0.9238141076613012
0.0166 6367.327865056813 1.000232592830814 1.546611803333997 276.2688771307174 0.9173006118413981
0.0167 6367.343299012815 1.000232211984127 1.546527484364002 276.1685564167032 0.9108052423500745
0.0168 6367.358786726795 1.000231830387198 1.546443141879076 276.0678862758313 0.9043281984565371
0.0169 6367.374328214349 1.000231448044583 1.546358775839901 275.9668666067336 0.8978696774269141
0.017 6367.389923491096 1.000231064960843 1.546274386207537 275.8654973078764 0.8914298745162469
0.0171 6367.405572572688 1.000230681140541 1.546189972943367 275.7637782775308 0.8850089829572798
0.0172 6367.421275474799 1.000230296588242 1.546105536009101 275.6617094138086 0.8786071939535942
0.0173 6367.437032213132 1.000229911308515 1.546021075366743 275.5592906146438 0.8722246966695576
0.0174 6367.452842803417 1.000229525305931 1.545936590978666 275.4565217777875 0.8658616782212523
0.0175 6367.468707261411 1.000229138585063 1.545852082807559 275.3534028008311 0.8595183236694386
0.0176 6367.484625602894 1.000228751150487 1.545767550816442 275.2499335811884 0.8531948160101509
0.0177 6367.500597843677 1.000228363006781 1.545682994968638 275.1461140160962 0.8468913361666173
0.0178 6367.516623999593 1.000227974158526 1.545598415227815 275.0419440026434 0.840608062983167
0.0179 6367.532704086502 1.000227584610305 1.545513811557974 274.9374234377354 0.8343451732153964
0.018 6367.548838120289 1.000227194366701 1.545429183923418 274.8325522181184 0.8281028415241349
0.0181 6367.565026116865 1.000226803432301 1.545344532288796 274.7273302403786 0.8218812404681786
0.0182 6367.581268092164 1.000226411811695 1.545259856619054 274.621757400931 0.8156805404965396
0.0183 6367.597564062148 1.000226019509471 1.545175156879492 274.5158335960367 0.8095009099426598
0.0184 6367.613914042802 1.000225626530224 1.545090433035688 274.4095587217856 0.8033425150167464
0.0185 6367.630318050136 1.000225232878545 1.5450056850536 274.3029326741138 0.7972055198003993
0.0186 6367.646776100182 1.000224838559031 1.544920912899466 274.1959553488153 0.7910900862410759
0.0187 6367.663288208999 1.000224443576279 1.544836116539864 274.0886266415072 0.7849963741440673
0.0188 6367.679854392667 1.000224047934886 1.544751295941677 273.9809464476642 0.778924541168761
0.0189 6367.696474667292 1.000223651639452 1.544666451072104 273.8729146626018 0.772874742822069
0.019 6367.713149049004 1.000223254694579 1.544581581898685 273.7645311814757 0.7668471324530963
0.0191 6367.729877553952 1.000222857104867 1.54449668838926 273.6557958993116 0.7608418612496546
0.0192 6367.746660198313 1.000222458874922 1.544411770511988 273.5467087109636 0.7548590782310495
0.0193 6367.763496998285 1.000222060009346 1.544326828235355 273.43726951115 0.7488989302453515
0.0194 6367.780387970086 1.000221660512745 1.544241861528141 273.3274781944414 0.7429615619642563
0.0195 6367.79733312996 1.000221260389725 1.54415687035946 273.2173346552603 0.7370471158788239
0.0196 6367.814332494172 1.000220859644892 1.544071854698759 273.1068387878817 0.7311557322954386
0.0197 6367.831386079008 1.000220458282856 1.543986814515761 272.9959904864503 0.7252875493329223
0.0198 6367.848493900778 1.000220056308222 1.543901749780522 272.8847896449455 0.7194427029170434
0.0199 6367.865655975811 1.000219653725601 1.543816660463394 272.7732361572283 0.7136213267796279
0.02 6367.88287232046 1.000219250539602 1.54373154653506 272.661329917012 0.7078235524538191
0.0201 6367.900142951097 1.000218846754834 1.543646407966522 272.549070817868 0.7020495092714405
0.0202 6367.917467884118 1.000218442375908 1.543561244729049 272.4364587532317 0.696299324360568
