#theta R n z T P_w
0 6365.5 1.000292042793424 1.560324351282931 288.15 4.262932090263019
0.0001 6365.506698014227 1.000291819484239 1.560245488212157 288.1064629075221 4.250995612112392
0.0002 6365.513446241495 1.000291594691625 1.560166607825934 288.0625994302803 4.238999347198416
0.0003 6365.520244693072 1.000291368419267 1.560087710001192 288.0184094950345 4.226943877433659
0.0004 6365.527093380304 1.00029114067087 1.560008794615391 287.973893028024 4.214829787015196
0.0005 6365.533992314619 1.000290911450159 1.55992986154666 287.9290499549742 4.202657662386064
0.0006000000000000001 6365.540941507525 1.00029068076088 1.5598509106737 287.8838802010899 4.190428092193365
0.0007 6365.547940970606 1.000290448606802 1.559771941875666 287.8383836910619 4.178141667249429
0.0008 6365.554990715528 1.000290214991712 1.559692955032445 287.7925603490665 4.165798980491221
0.0009000000000000001 6365.562090754033 1.000289979919418 1.559613950024421 287.7464100987835 4.153400626944375
0.001 6365.569241097945 1.000289743393751 1.559534926732549 287.6999328633605 4.140947203672772
0.0011 6365.57644175916 1.000289505418558 1.559455885038327 287.6531285654604 4.128439309750223
0.0012 6365.583692749656 1.00028926599771 1.559376824823886 287.6059971272379 4.115877546212956
0.0013 6365.590994081485 1.000289025135096 1.559297745971864 287.5585384703448 4.103262516019906
0.0014 6365.598345766778 1.000288782834626 1.559218648365422 287.5107525159427 4.09059482401442
0.0015 6365.605747817742 1.000288539100228 1.559139531888385 287.4626391846786 4.077875076876446
0.0016 6365.613200246657 1.000288293935853 1.559060396425034 287.4141983967264 4.065103883091814
0.0017 6365.620703065883 1.000288047345468 1.558981241860256 287.3654300717579 4.052281852902591
0.0018 6365.628256287852 1.000287799333061 1.558902068079503 287.31633412896 4.039409598269855
0.0019 6365.635859925073 1.000287549902641 1.558822874968701 287.2669104870287 4.026487732830093
0.002 6365.643513990127 1.000287299058233 1.558743662414442 287.2171590641755 4.013516871854613
0.0021 6365.651218495672 1.000287046803884 1.558664430303766 287.1670797781329 4.000497632208806
0.0022 6365.658973454438 1.000286793143657 1.558585178524322 287.1166725461547 3.987430632309787
0.0023 6365.666778879229 1.000286538081636 1.558505906964265 287.0659372850099 3.974316492082379
0.0024 6365.674634782923 1.000286281621923 1.558426615512326 287.0148739110003 3.961155832921142
0.0025 6365.68254117847 1.00028602376864 1.558347304057767 286.9634823399432 3.947949277643124
0.0026 6365.690498078893 1.000285764525924 1.558267972490363 286.9117624871946 3.934697450451187
0.0027 6365.698505497287 1.000285503897933 1.558188620700503 286.8597142676375 3.921400976888111
0.0028 6365.706563446815 1.000285241888844 1.558109248579097 286.8073375957 3.908060483798171
0.0029 6365.71467194072 1.000284978502849 1.558029856017542 286.7546323853193 3.894676599275089
0.003 6365.722830992308 1.00028471374416 1.557950442907867 286.701598550001 3.881249952633961
0.0031 6365.731040614958 1.000284447617006 1.557871009142546 286.648236002772 3.867781174356051
0.0032 6365.739300822123 1.000284180125634 1.557791554614634 286.5945446561981 3.854270896050055
0.0033 6365.747611627323 1.000283911274309 1.557712079217788 286.5405244224015 3.840719750413237
0.0034 6365.755973044146 1.000283641067312 1.557632582846104 286.4861752130495 3.827128371185026
0.0035 6365.764385086253 1.000283369508943 1.557553065394284 286.4314969393539 3.813497393103571
0.0036 6365.772847767372 1.000283096603517 1.557473526757519 286.3764895120834 3.799827451865172
0.0037 6365.7813611013 1.000282822355368 1.557393966831627 286.3211528415512 3.786119184077747
0.0038 6365.789925101903 1.000282546768845 1.557314385512879 286.2654868376334 3.772373227221614
0.0039 6365.798539783114 1.000282269848315 1.557234782698103 286.2094914097564 3.758590219602873
0.004 6365.807205158936 1.000281991598162 1.557155158284673 286.1531664669154 3.744770800314045
0.0041 6365.815921243436 1.000281712022785 1.557075512170546 286.096511917668 3.730915609188826
0.004200000000000001 6365.82468805075 1.000281431126599 1.556995844254134 286.0395276701223 3.717025286755381
0.0043 6365.833505595082 1.000281148914037 1.556916154434483 285.9822136319671 3.703100474199729
0.0044 6365.842373890699 1.000280865389547 1.556836442611053 285.9245697104533 3.689141813317508
0.004500000000000001 6365.851292951937 1.000280580557592 1.556756708684004 285.8665958124124 3.675149946474352
0.0046 6365.860262793194 1.000280294422653 1.556676952553907 285.8082918442382 3.661125516557656
0.0047 6365.869283428939 1.000280006989224 1.556597174121924 285.749657711899 3.647069166935483
0.0048 6365.878354873699 1.000279718261816 1.55651737328976 285.6906933209551 3.632981541416804
0.0049 6365.887477142072 1.000279428244955 1.556437549959606 285.6313985765295 3.618863284200416
0.005 6365.896650248717 1.000279136943181 1.556357704034294 285.571773383337 3.604715039837992
0.0051 6365.905874208358 1.000278844361052 1.556277835417098 285.511817645673 3.590537453187226
0.005200000000000001 6365.915149035782 1.000278550503137 1.556197944011888 285.4515312674188 3.576331169369204
0.0053 6365.924474745838 1.000278255374023 1.55611802972304 285.3909141520538 3.562096833727145
0.0054 6365.93385135344 1.00027795897831 1.556038092455532 285.3299662026378 3.547835091778186
0.005500000000000001 6365.943278873565 1.000277661320612 1.555958132114793 285.2686873218285 3.533546589173522
0.0056 6365.952757321251 1.000277362405558 1.555878148606866 285.2070774118696 3.519231971651622
0.0057 6365.962286711598 1.000277062237792 1.555798141838307 285.1451363746149 3.504891884999726
0.0058 6365.971867059767 1.00027676082197 1.555718111716246 285.0828641115162 3.490526975007072
0.0059 6365.981498380981 1.000276458162764 1.555638058148277 285.0202605236231 3.476137887420933
0.006 6365.991180690524 1.000276154264858 1.555557981042639 284.9573255115951 3.461725267905381
0.0061 6366.000914003741 1.00027584913295 1.555477880308022 284.8940589756838 3.447289761993297
0.006200000000000001 6366.010698336036 1.000275542771752 1.555397755853738 284.8304608157686 3.432832015050581
0.0063 6366.020533702873 1.000275235185989 1.55531760758958 284.7665309313264 3.418352672225531
0.0064 6366.030420119777 1.000274926380399 1.555237435425907 284.7022692214504 3.403852378409058
0.006500000000000001 6366.04035760233 1.000274616359732 1.555157239273675 284.6376755848549 3.389331778192218
0.0066 6366.050346166174 1.000274305128754 1.555077019044284 284.5727499198705 3.374791515821121
0.0067 6366.06038582701 1.000273992692239 1.554996774649742 284.5074921244371 3.360232235151926
0.0068 6366.070476600596 1.000273679054977 1.554916506002639 284.4419020961285 3.345654579612483
0.006900000000000001 6366.080618502748 1.00027336422177 1.554836213015992 284.3759797321399 3.331059192156087
0.007 6366.090811549339 1.000273048197431 1.554755895603509 284.309724929294 3.316446715219253
0.0071 6366.101055756303 1.000272730986786 1.554675553679322 284.2431375840296 3.301817790675655
0.007200000000000001 6366.111351139626 1.000272412594672 1.554595187158173 284.1762175924304 3.287173059799236
0.0073 6366.121697715351 1.000272093025939 1.554514795955373 284.1089648502196 3.272513163219524
0.0074 6366.132095499578 1.000271772285448 1.554434379986698 284.0413792527423 3.257838740874498
0.007500000000000001 6366.142544508465 1.00027145037807 1.55435393916857 283.9734606949768 3.243150431970028
0.0076 6366.153044758221 1.000271127308691 1.554273473417893 283.9052090715644 3.22844887494313
0.0077 6366.163596265113 1.000270803082205 1.55419298265211 283.8366242767682 3.213734707409995
0.007800000000000001 6366.174199045462 1.000270477703518 1.554112466789278 283.7677062044967 3.199008566128185
0.007900000000000001 6366.184853115644 1.000270151177546 1.554031925748001 283.6984547483152 3.184271086956306
0.008 6366.195558492087 1.000269823509219 1.553951359447306 283.6288698014345 3.169522904808706
0.0081 6366.206315191275 1.000269494703473 1.553870767806951 283.5589512567107 3.154764653612853
0.008200000000000001 6366.217123229744 1.000269164765257 1.553790150747117 283.4886990066628 3.139996966270532
0.0083 6366.227982624083 1.00026883369953 1.5537095081886 283.4181129434613 3.125220474612895
0.008400000000000001 6366.238893390933 1.000268501511262 1.553628840052709 283.3471929589335 3.110435809359382
0.008500000000000001 6366.249855546989 1.00026816820543 1.553548146261347 283.2759389445699 3.095643600076734
0.0086 6366.260869108997 1.000267833787024 1.553467426736904 283.2043507915181 3.080844475135656
0.008700000000000001 6366.271934093754 1.000267498261042 1.553386681402389 283.1324283906005 3.066039061672514
0.008800000000000001 6366.283050518108 1.000267161632491 1.553305910181351 283.0601716322966 3.051227985543801
0.0089 6366.294218398961 1.00026682390639 1.553225112997843 282.987580406755 3.036411871286867
0.009000000000000001 6366.305437753261 1.000266485087764 1.553144289776513 282.9146546038049 3.021591342080716
0.0091 6366.316708598009 1.000266145181649 1.553063440442574 282.8413941129387 3.006767019700929
0.0092 6366.328030950256 1.000265804193089 1.552982564921759 282.7677988233353 2.991939524483145
0.009300000000000001 6366.3394048271 1.000265462127137 1.552901663140377 282.6938686238485 2.977109475279461
0.0094 6366.35083024569 1.000265118988856 1.552820735025275 282.619603403013 2.9622774894186
0.0095 6366.362307223225 1.000264774783314 1.552739780503877 282.5450030490382 2.947444182663846
0.009600000000000001 6366.373835776949 1.000264429515591 1.552658799504139 282.4700674498321 2.932610169177027
0.0097 6366.385415924156 1.000264083190772 1.552577791954568 282.3947964929833 2.917776061474386
0.0098 6366.39704768219 1.000263735813953 1.552496757784291 282.3191900657674 2.902942470387361
0.009900000000000001 6366.408731068437 1.000263387390234 1.552415696922888 282.2432480551582 2.88811000502465
0.01 6366.420466100336 1.000263037924727 1.552334609300571 282.1669703478163 2.873279272729805
0.0101 6366.432252795367 1.000262687422549 1.55225349484806 282.0903568301127 2.858450879045924
0.0102 6366.444091171061 1.000262335888825 1.552172353496674 282.0134073881048 2.843625427671305
0.0103 6366.455981244992 1.000261983328685 1.552091185178244 281.9361219075489 2.828803520422206
0.0104 6366.467923034783 1.00026162974727 1.552009989825195 281.8585002739113 2.813985757195729
0.0105 6366.479916558097 1.000261275149725 1.551928767370489 281.7805423723688 2.799172735930605
0.0106 6366.491961832647 1.000260919541203 1.551847517747653 281.7022480877966 2.784365052565934
0.0107 6366.504058876187 1.000260562926862 1.551766240890756 281.6236173047863 2.769563301005752
0.0108 6366.516207706517 1.00026020531187 1.551684936734436 281.5446499076396 2.754768073079283
0.0109 6366.528408341481 1.000259846701396 1.551603605213879 281.4653457803746 2.739979958503636
0.011 6366.540660798966 1.000259487100621 1.551522246264835 281.3857048067197 2.725199544844496
0.0111 6366.552965096903 1.000259126514726 1.551440859823596 281.3057268701313 2.710427417481414
0.0112 6366.565321253264 1.000258764948903 1.551359445827042 281.225411853782 2.695664159567807
0.0113 6366.577729286066 1.000258402408347 1.551278004212569 281.1447596405727 2.680910351995559
0.0114 6366.590189213365 1.000258038898258 1.551196534918164 281.0637701131262 2.666166573356566
0.0115 6366.602701053261 1.000257674423843 1.551115037882338 280.9824431538053 2.651433399908814
0.0116 6366.615264823895 1.000257308990313 1.551033513044192 280.9007786446831 2.636711405534098
0.0117 6366.627880543449 1.000256942602886 1.550951960343341 280.8187764675785 2.622001161707758
0.0118 6366.640548230147 1.000256575266782 1.550870379720007 280.7364365040443 2.607303237460069
0.0119 6366.65326790225 1.000256206987229 1.550788771114917 280.6537586353733 2.592618199341056
0.012 6366.666039578063 1.000255837769455 1.550707134469392 280.5707427425922 2.577946611383454
0.0121 6366.678863275926 1.000255467618698 1.550625469725302 280.4873887064795 2.563289035070101
0.0122 6366.691739014223 1.000255096540196 1.550543776825067 280.4036964075475 2.54864602929529
0.0123 6366.704666811375 1.000254724539193 1.550462055711644 280.3196657260604 2.53401815033264
0.0124 6366.717646685841 1.000254351620937 1.550380306328592 280.235296542034 2.519405951800068
0.0125 6366.730678656118 1.000253977790679 1.550298528619953 280.1505887352299 2.504809984624004
0.0126 6366.743762740745 1.000253603053675 1.550216722530362 280.0655421851556 2.490230797004924
0.0127 6366.756898958293 1.000253227415183 1.550134888005047 279.9801567710937 2.475668934388179
0.0128 6366.770087327373 1.000252850880466 1.550053024989737 279.8944323720729 2.461124939424932
0.0129 6366.783327866633 1.000252473454789 1.549971133430722 279.8083688668852 2.446599351941498
0.013 6366.796620594757 1.00025209514342 1.549889213274885 279.7219661340804 2.432092708904905
0.0131 6366.809965530463 1.000251715951631 1.54980726446961 279.6352240519894 2.417605544393697
0.0132 6366.823362692509 1.000251335884696 1.549725286962873 279.5481424986891 2.4031383895591
0.0133 6366.836812099687 1.000250954947892 1.549643280703151 279.4607213520375 2.388691772598365
0.0134 6366.850313770822 1.000250573146499 1.549561245639522 279.3729604896561 2.374266218719478
0.0135 6366.863867724777 1.000250190485797 1.549479181721631 279.2848597889478 2.359862250112066
0.0136 6366.877473980448 1.00024980697107 1.549397088899611 279.1964191270907 2.345480385914656
0.0137 6366.891132556763 1.000249422607606 1.549314967124165 279.1076383810386 2.331121142183227
0.0138 6366.904843472688 1.000249037400692 1.549232816346613 279.018517427526 2.316785031861012
0.0139 6366.918606747218 1.000248651355616 1.549150636518726 278.9290561430811 2.302472564749534
0.014 6366.932422399384 1.000248264477672 1.549068427592893 278.8392544040011 2.288184247474242
0.0141 6366.94629044825 1.00024787677215 1.54898618952201 278.7491120863764 2.273920583458064
0.0142 6366.960210912909 1.000247488244346 1.548903922259564 278.6586290660906 2.259682072891436
0.0143 6366.974183812491 1.000247098899554 1.548821625759541 278.5678052188085 2.24546921270081
0.0144 6366.988209166152 1.00024670874307 1.548739299976524 278.4766404200117 2.231282496524879
0.0145 6367.002286993084 1.000246317780193 1.548656944865591 278.3851345449569 2.21712241467909
0.0146 6367.016417312507 1.000245926016219 1.548574560382425 278.2932874687061 2.202989454131582
0.0147 6367.030600143674 1.000245533456447 1.548492146483185 278.20109906612 2.188884098473895
0.0148 6367.044835505866 1.000245140106176 1.548409703124638 278.1085692118703 2.17480682789473
0.0149 6367.059123418395 1.000244745970706 1.548327230264053 278.0156977804335 2.16075811915131
0.015 6367.073463900603 1.000244351055335 1.548244727859284 277.9224846460792 2.146738445540224
0.0151 6367.087856971861 1.000243955365363 1.548162195868673 277.8289296829056 2.132748276875732
0.0152 6367.102302651569 1.00024355890609 1.548079634251141 277.735032764804 2.118788079457704
0.0153 6367.116800959155 1.000243161682814 1.547997042966142 277.6407937654943 2.104858316050563
0.0154 6367.131351914076 1.000242763700835 1.54791442197367 277.5462125585071 2.090959445854575
0.0155 6367.145955535817 1.00024236496545 1.547831771234261 277.4512890171899 2.077091924481053
0.0156 6367.160611843889 1.000241965481957 1.547749090708973 277.3560230147185 2.063256203928721
0.0157 6367.175320857833 1.000241565255653 1.547666380359438 277.2604144240858 2.049452732556988
0.0158 6367.190082597213 1.000241164291833 1.54758364014778 277.1644631181128 2.035681955063013
0.0159 6367.204897081624 1.000240762595793 1.547500870036707 277.0681689694437 2.02194431245656
0.016 6367.219764330683 1.000240360172826 1.547418069989408 276.9715318505627 2.008240242038581
0.0161 6367.234684364036 1.000239957028223 1.547335239969659 276.8745516337648 1.994570177373449
0.0162 6367.249657201353 1.000239553167276 1.547252379941735 276.7772281912033 1.980934548272416
0.0163 6367.26468286233 1.000239148595273 1.54716948987047 276.6795613948542 1.967333780765745
0.0164 6367.279761366686 1.000238743317502 1.547086569721186 276.5815511165396 1.953768297083532
0.0165 6367.294892734168 1.000238337339249 1.547003619459799 276.4831972279102 1.940238515631113
0.0166 6367.310076984542 1.000237930665797 1.546920639052676 276.3844996004749 1.926744850971401
0.0167 6367.325314137605 1.000237523302426 1.546837628466796 276.2854581055652 1.91328771379862
0.0168 6367.340604213171 1.000237115254416 1.546754587669612 276.1860726143885 1.899867510924565
0.0169 6367.35594723108 1.000236706527044 1.546671516629118 276.0863429979808 1.886484645251514
0.017 6367.371343211194 1.000236297125584 1.54658841531382 275.9862691272359 1.873139515755999
0.0171 6367.3867921734 1.000235887055306 1.546505283692778 275.8858508729003 1.859832517468115
0.0172 6367.402294137603 1.00023547632148 1.546422121735551 275.7850881055782 1.846564041452822
0.0173 6367.417849123734 1.000235064929371 1.54633892941222 275.6839806957263 1.833334474790047
0.0174 6367.433457151744 1.000234652884241 1.546255706693391 275.5825285136651 1.820144200557528
0.0175 6367.449118241602 1.000234240191351 1.546172453550207 275.4807314295853 1.806993597813226
0.0176 6367.464832413304 1.000233826855956 1.546089169954302 275.3785893135235 1.793883041574323
0.0177 6367.480599686863 1.000233412883309 1.546005855877832 275.2761020353927 1.780812902803509
0.0178 6367.496420082311 1.000232998278658 1.545922511293498 275.1732694649753 1.767783548391038
0.0179 6367.512293619703 1.00023258304725 1.545839136174482 275.0700914719299 1.754795341138708
0.018 6367.528220319111 1.000232167194326 1.545755730494482 274.966567925779 1.741848639741999
0.0181 6367.544200200628 1.000231750725123 1.545672294227744 274.862698695921 1.728943798775614
0.0182 6367.560233284364 1.000231333644877 1.545588827348965 274.7584836516361 1.716081168678637
0.0183 6367.57631959045 1.000230915958815 1.5455053298334 274.6539226620743 1.703261095737908
0.0184 6367.592459139035 1.000230497672163 1.545421801656811 274.5490155962733 1.690483922075458
0.0185 6367.608651950283 1.000230078790142 1.545338242795421 274.4437623231587 1.67774998563413
0.0186 6367.624898044382 1.000229659317969 1.545254653226008 274.3381627115199 1.665059620160785
0.0187 6367.641197441529 1.000229239260855 1.545171032925821 274.2322166300636 1.652413155199177
0.0188 6367.657550161944 1.000228818624006 1.545087381872631 274.1259239473665 1.639810916071125
0.0189 6367.673956225862 1.000228397412626 1.545003700044719 274.0192845318987 1.627253223866639
0.019 6367.690415653534 1.000227975631911 1.544919987420825 273.9122982520302 1.61474039543231
0.0191 6367.706928465227 1.000227553287053 1.544836243980242 273.8049649760241 1.602272743358701
0.0192 6367.723494681225 1.000227130383239 1.544752469702705 273.6972845720373 1.589850575968881
0.0193 6367.740114321826 1.00022670692565 1.544668664568462 273.5892569081324 1.577474197308736
0.0194 6367.756787407345 1.000226282919463 1.544584828558281 273.4808818522591 1.565143907134283
0.0195 6367.77351395811 1.000225858369848 1.544500961653395 273.3721592722849 1.552860000904837
0.0196 6367.790293994462 1.00022543328197 1.544417063835514 273.2630890359941 1.540622769773142
0.0197 6367.807127536762 1.000225007660987 1.544333135086885 273.1536710110471 1.528432500571353
0.0198 6367.824014605379 1.000224581512054 1.544249175390194 273.0439050650392 1.516289475808707
0.0199 6367.840955220698 1.000224154840318 1.544165184728638 272.9337910654652 1.504193973658999
0.02 6367.857949403118 1.000223727650919 1.544081163085872 272.8233288797313 1.492146267953792
0.0201 6367.87499717305 1.000223299948994 1.543997110446076 272.7125183751726 1.480146628176643
0.0202 6367.892098550918 1.000222871739669 1.543913026793868 272.6013594190357 1.468195319453877
0.0203 6367.909253557157 1.000222443028069 1.543828912114359 272.4898518784784 1.456292602547761
