#theta R n z T P_w
0 6365.5 1.000323482136535 1.560324351282931 288.15 11.25414071829437
0.0001 6365.506698014227 1.000323180291685 1.560252931038463 288.1064629075221 11.22262841597672
0.0002 6365.513441503223 1.000322876757365 1.560181477597655 288.0626302290533 11.19098048624606
0.0003 6365.520230488332 1.000322571539409 1.560109990769964 288.0185018258397 11.15919825187096
0.0004 6365.527064991028 1.000322264643678 1.560038470365809 287.9740775583176 11.12728304028668
0.0005 6365.5339450329 1.000321956076063 1.559966916196599 287.9293572861487 11.09523618354461
0.0006000000000000001 6365.540870635664 1.00032164584248 1.559895328074756 287.8843408681849 11.06305901821036
0.0007 6365.547841821153 1.000321333948875 1.559823705813617 287.8390281625037 11.03075288531254
0.0008 6365.554858611325 1.000321020401221 1.559752049227523 287.7934190263903 10.99831913025296
0.0009000000000000001 6365.561921028252 1.000320705205518 1.559680358131799 287.7475133163615 10.96575910274607
0.001 6365.569029094131 1.000320388367792 1.559608632342759 287.7013108881478 10.93307415672873
0.0011 6365.576182831273 1.000320069894099 1.559536871677633 287.6548115967229 10.90026565030301
0.0012 6365.583382262112 1.000319749790519 1.559465075954677 287.6080152962744 10.86733494563705
0.0013 6365.590627409194 1.000319428063159 1.559393244993081 287.5609218402391 10.83428340891138
0.0014 6365.597918295184 1.000319104718155 1.559321378613099 287.5135310813029 10.8011124102399
0.0015 6365.605254942865 1.000318779761664 1.559249476635878 287.4658428713773 10.76782332357406
0.0016 6365.612637375133 1.000318453199875 1.55917753888355 287.4178570616349 10.7344175266481
0.0017 6365.620065614999 1.000318125038997 1.559105565179281 287.3695735025034 10.70089640089504
0.0018 6365.627539685592 1.00031779528527 1.559033555347172 287.3209920436537 10.6672613313583
0.0019 6365.635059610148 1.000317463944954 1.558961509212294 287.2721125340357 10.63351370663585
0.002 6365.642625412022 1.000317131024339 1.558889426600798 287.2229348218542 10.59965491878312
0.0021 6365.65023711468 1.000316796529737 1.55881730733965 287.173458754581 10.56568636324011
0.0022 6365.657894741697 1.000316460467485 1.558745151256974 287.1236841789727 10.53160943876235
0.0023 6365.665598316761 1.000316122843945 1.558672958181797 287.0736109410526 10.49742554732709
0.0024 6365.673347863672 1.000315783665505 1.558600727944088 287.023238886129 10.4631360940637
0.0025 6365.681143406338 1.000315442938573 1.558528460374929 286.9725678588005 10.42874248717551
0.0026 6365.688984968778 1.000315100669585 1.558456155306294 286.9215977029447 10.39424613784949
0.0027 6365.696872575118 1.000314756864999 1.558383812571142 286.8703282617356 10.3596484601857
0.0028 6365.704806249591 1.000314411531296 1.558311432003511 286.8187593776555 10.32495087112235
0.0029 6365.712786016542 1.00031406467498 1.558239013438381 286.7668908924774 10.29015479034076
0.003 6365.720811900419 1.00031371630258 1.558166556711731 286.7147226472765 10.25526164019007
0.0031 6365.728883925776 1.000313366420646 1.558094061660496 286.6622544824544 10.22027284561941
0.0032 6365.737002117276 1.000313015035752 1.558021528122711 286.6094862377089 10.18518983407437
0.0033 6365.745166499682 1.000312662154493 1.557948955937305 286.5564177520699 10.15001403543667
0.0034 6365.753377097864 1.000312307783486 1.557876344944256 286.5030488638816 10.11474688192802
0.0035 6365.761633936798 1.000311951929372 1.5578036949846 286.4493794108142 10.07938980803359
0.0036 6365.769937041558 1.000311594598811 1.557731005900269 286.3954092298758 10.0439442504251
0.0037 6365.778286437323 1.000311235798487 1.557658277534328 286.3411381574005 10.00841164786814
0.0038 6365.786682149374 1.000310875535103 1.557585509730733 286.2865660290662 9.972793441148776
0.0039 6365.795124203093 1.000310513815385 1.557512702334525 286.2316926798948 9.937091072988222
0.004 6365.803612623963 1.000310150646078 1.557439855191736 286.1765179442399 9.901305987949735
0.0041 6365.812147437565 1.00030978603395 1.557366968149358 286.1210416558287 9.865439632379845
0.004200000000000001 6365.82072866958 1.000309419985786 1.55729404105553 286.065263647732 9.829493454303305
0.0043 6365.829356345787 1.000309052508395 1.557221073759288 286.0091837523822 9.793468903348586
0.0044 6365.838030492065 1.000308683608601 1.557148066110775 285.9528018015793 9.757367430665473
0.004500000000000001 6365.846751134388 1.000308313293253 1.557075017961068 285.8961176264787 9.721190488831182
0.0046 6365.855518298827 1.000307941569215 1.55700192916236 285.839131057627 9.684939531786522
0.0047 6365.864332011549 1.000307568443374 1.556928799567771 285.7818419249323 9.648616014730353
0.0048 6365.873192298817 1.000307193922632 1.556855629031526 285.724250057688 9.61222139404787
0.0049 6365.88209918699 1.000306818013912 1.556782417408853 285.6663552845665 9.575757127219907
0.005 6365.891052702518 1.000306440724155 1.556709164556016 285.6081574336316 9.53922467274335
0.0051 6365.900052871946 1.000306062060321 1.556635870330298 285.5496563323499 9.502625490051274
0.005200000000000001 6365.909099721911 1.000305682029387 1.556562534590001 285.4908518075789 9.465961039418188
0.0053 6365.918193279142 1.000305300638347 1.556489157194537 285.4317436855794 9.429232781879952
0.0054 6365.92733357046 1.000304917894214 1.556415738004293 285.3723317920088 9.392442179142583
0.005500000000000001 6365.936520622778 1.000304533804018 1.556342276880661 285.3126159519455 9.355590693509212
0.0056 6365.945754463095 1.000304148374806 1.556268773686192 285.2525959898825 9.318679787788595
0.0057 6365.955035118504 1.00030376161364 1.556195228284368 285.1922717297215 9.281710925203598
0.0058 6365.964362616185 1.000303373527601 1.556121640539732 285.1316429947968 9.244685569317763
0.0059 6365.973736983405 1.000302984123784 1.556048010317977 285.0707096078694 9.207605183943556
0.006 6365.983158247519 1.000302593409303 1.555974337485717 285.0094713911266 9.17047123305424
0.0061 6365.99262643597 1.000302201391284 1.555900621910677 284.9479281661942 9.133285180702853
0.006200000000000001 6366.002141576287 1.000301808076872 1.5558268634616 284.8860797541364 9.096048490933901
0.0063 6366.011703696083 1.000301413473223 1.555753062008357 284.8239259754617 9.058762627698581
0.0064 6366.021312823055 1.000301017587514 1.55567921742177 284.7614666501407 9.021429054776956
0.006500000000000001 6366.030968984988 1.00030062042693 1.555605329573838 284.6987015975764 8.984049235671797
0.0066 6366.040672209748 1.000300221998677 1.555531398337471 284.6356306366396 8.946624633541331
0.0067 6366.050422525282 1.000299822309969 1.555457423586804 284.5722535856693 8.909156711110578
0.0068 6366.060219959621 1.000299421368039 1.555383405196904 284.5085702624605 8.871646930575787
0.006900000000000001 6366.07006454088 1.000299019180131 1.55530934304397 284.444580484282 8.834096753526319
0.007 6366.07995629725 1.000298615753503 1.555235237005231 284.3802840678767 8.79650764085603
0.0071 6366.089895257005 1.000298211095427 1.555161086959049 284.3156808294669 8.758881052678069
0.007200000000000001 6366.099881448497 1.000297805213187 1.555086892784706 284.2507705847669 8.721218448243109
0.0073 6366.10991490016 1.000297398114079 1.555012654362744 284.1855531489585 8.683521285836965
0.0074 6366.119995640501 1.000296989805413 1.554938371574662 284.1200283367451 8.645791022722783
0.007500000000000001 6366.130123698107 1.000296580294511 1.554864044303037 284.0541959623037 8.608029115025023
0.0076 6366.140299101643 1.000296169588706 1.55478967243155 283.9880558393205 8.570237017661347
0.0077 6366.150521879847 1.000295757695344 1.554715255844958 283.9216077809914 8.532416184253965
0.007800000000000001 6366.160792061536 1.000295344621779 1.554640794429068 283.8548516000154 8.49456806703769
0.007900000000000001 6366.171109675598 1.00029493037538 1.554566288070805 283.7877871086129 8.456694116781533
0.008 6366.181474750998 1.000294514963525 1.554491736658121 283.7204141185133 8.418795782693504
0.0081 6366.191887316772 1.000294098393603 1.554417140080127 283.6527324409793 8.380874512345558
0.008200000000000001 6366.202347402032 1.000293680673013 1.554342498226932 283.5847418867946 8.342931751578545
0.0083 6366.212855035955 1.000293261809165 1.554267810989806 283.5164422662937 8.304968944430394
0.008400000000000001 6366.223410247798 1.000292841809476 1.554193078261021 283.4478333893143 8.266987533021572
0.008500000000000001 6366.234013066884 1.000292420681375 1.554118299934042 283.3789150652568 8.228988957499846
0.0086 6366.244663522604 1.000291998432301 1.554043475903326 283.3096871030724 8.190974655945517
0.008700000000000001 6366.255361644423 1.000291575069699 1.553968606064453 283.240149311251 8.152946064276948
0.008800000000000001 6366.266107461871 1.000291150601025 1.553893690314138 283.1703014978392 8.114904616172478
0.0089 6366.276901004548 1.000290725033742 1.553818728550078 283.1001434704402 8.076851742982633
0.009000000000000001 6366.287742302117 1.000290298375322 1.553743720671231 283.0296750362376 8.038788873655271
0.0091 6366.298631384314 1.000289870633245 1.553668666577489 282.9588960019595 8.000717434628818
0.0092 6366.309568280935 1.000289441814997 1.553593566169896 282.8878061739205 7.962638849767265
0.009300000000000001 6366.320553021845 1.000289011928074 1.553518419350642 282.8164053580093 7.924554540266446
0.0094 6366.33158563697 1.000288580979977 1.553443226022936 282.7446933596951 7.886465924570091
0.0095 6366.342666156302 1.000288148978213 1.553367986091139 282.6726699840391 7.848374418289094
0.009600000000000001 6366.353794609895 1.000287715930299 1.553292699460681 282.6003350356826 7.81028143410841
0.0097 6366.364971027865 1.000287281843754 1.553217366038121 282.527688318877 7.772188381715987
0.0098 6366.376195440391 1.000286846726105 1.55314198573108 282.4547296374598 7.734096667703771
0.009900000000000001 6366.387467877712 1.000286410584886 1.553066558448337 282.3814587948722 7.696007695490763
0.01 6366.398788370127 1.000285973427634 1.552991084099698 282.3078755941714 7.657922865242972
0.0101 6366.410156947996 1.000285535261892 1.552915562596151 282.2339798380243 7.619843573784361
0.0102 6366.421573641735 1.000285096095208 1.552839993849734 282.1597713287196 7.581771214517198
0.0103 6366.43303848182 1.000284655935134 1.552764377773613 282.0852498681674 7.543707177336457
0.0104 6366.444551498785 1.000284214789227 1.552688714282058 282.0104152578996 7.505652848544499
0.0105 6366.456112723217 1.000283772665048 1.552613003290444 281.9352672990875 7.467609610774978
0.0106 6366.467722185766 1.000283329570161 1.55253724471523 281.8598057925241 7.429578842898944
0.0107 6366.479379917129 1.000282885512134 1.55246143847404 281.7840305386593 7.391561919958109
0.0108 6366.491085948064 1.000282440498537 1.552385584485569 281.7079413375826 7.353560213071408
0.0109 6366.502840309381 1.000281994536945 1.552309682669571 281.6315379890228 7.315575089350894
0.011 6366.514643031942 1.000281547634933 1.552233732947016 281.5548202923777 7.27760791183255
0.0111 6366.526494146662 1.000281099800081 1.552157735239917 281.4777880466962 7.239660039383748
0.0112 6366.538393684508 1.000280651039969 1.552081689471386 281.4004410506963 7.201732826628641
0.0113 6366.5503416765 1.00028020136218 1.552005595565683 281.3227791027529 7.163827623859234
0.0114 6366.562338153704 1.000279750774297 1.551929453448192 281.2448020009218 7.125945776964161
0.0115 6366.574383147241 1.000279299283907 1.551853263045316 281.1665095429338 7.088088627343217
0.0116 6366.586476688278 1.000278846898594 1.551777024284675 281.0879015261943 7.050257511825144
0.0117 6366.598618808029 1.000278393625945 1.551700737094937 281.0089777478132 7.012453762599938
0.0118 6366.610809537758 1.000277939473548 1.551624401405944 280.9297380045754 6.974678707122965
0.0119 6366.623048908776 1.000277484448989 1.551548017148558 280.8501820929581 6.936933668042268
0.012 6366.635336952438 1.000277028559856 1.551471584254843 280.770309809155 6.899219963128773
0.0121 6366.647673700147 1.000276571813734 1.551395102657902 280.6901209490464 6.861538905181646
0.0122 6366.660059183348 1.000276114218209 1.551318572292003 280.6096153082348 6.823891801964764
0.0123 6366.672493433534 1.000275655780866 1.551241993092504 280.5287926820268 6.786279956118416
0.0124 6366.684976482238 1.000275196509287 1.551165364995878 280.4476528654517 6.748704665088045
0.0125 6366.697508361037 1.000274736411055 1.551088687939709 280.3661956532604 6.711167221045006
0.0126 6366.710089101549 1.000274275493749 1.551011961862679 280.2844208399323 6.67366891081046
0.0127 6366.722718735435 1.000273813764945 1.550935186704606 280.2023282196745 6.636211015776928
0.0128 6366.735397294395 1.00027335123222 1.550858362406397 280.1199175864343 6.598794811835645
0.0129 6366.74812481017 1.000272887903146 1.550781488910082 280.0371887338928 6.5614215692962
0.013 6366.76090131454 1.00027242378529 1.550704566158822 279.9541414554886 6.524092552819973
0.0131 6366.773726839322 1.00027195888622 1.550627594096853 279.8707755444065 6.486809021337891
0.0132 6366.786601416373 1.000271493213498 1.550550572669506 279.7870907935766 6.449572227974054
0.0133 6366.799525077585 1.000271026774681 1.550473501823294 279.7030869956988 6.412383419980293
0.0134 6366.812497854888 1.000270559577325 1.550396381505762 279.6187639432304 6.3752438386553
0.0135 6366.825519780246 1.000270091628978 1.550319211665622 279.5341214283984 6.33815471927475
0.0136 6366.838590885661 1.000269622937187 1.550241992252624 279.4491592432049 6.301117291019191
0.0137 6366.851711203166 1.00026915350949 1.550164723217699 279.3638771794216 6.264132776897251
0.0138 6366.864880764829 1.000268683353424 1.550087404512856 279.2782750286132 6.227202393682153
0.0139 6366.878099602749 1.000268212476516 1.550010036091185 279.1923525821315 6.190327351835783
0.014 6366.891367749061 1.000267740886291 1.549932617906925 279.106109631104 6.153508855430851
0.0141 6366.904685235928 1.000267268590266 1.549855149915385 279.0195459664686 6.116748102093782
0.0142 6366.918052095546 1.000266795595952 1.549777632072999 278.9326613789507 6.08004628292275
0.0143 6366.93146836014 1.000266321910853 1.549700064337279 278.8454556590922 6.043404582428909
0.0144 6366.944934061964 1.000265847542467 1.549622446666859 278.7579285972341 6.006824178458039
0.0145 6366.958449233302 1.000265372498284 1.549544779021457 278.6700799835402 5.970306242130171
0.0146 6366.972013906464 1.000264896785785 1.549467061361922 278.5819096079848 5.933851937764836
0.0147 6366.98562811379 1.000264420412448 1.549389293650143 278.4934172603652 5.897462422816759
0.0148 6366.999291887643 1.000263943385737 1.549311475849201 278.4046027303187 5.861138847814375
0.0149 6367.013005260416 1.000263465713112 1.549233607923182 278.3154658072939 5.82488235627953
0.015 6367.026768264524 1.000262987402023 1.549155689837273 278.2260062805912 5.788694084676802
0.0151 6367.040580932409 1.000262508459911 1.549077721557834 278.1362239393396 5.752575162336775
0.0152 6367.054443296534 1.000262028894208 1.548999703052236 278.0461185725266 5.716526711401478
0.0153 6367.068355389388 1.000261548712336 1.54892163428899 277.9556899689795 5.680549846751294
0.0154 6367.08231724348 1.000261067921709 1.548843515237635 277.8649379173784 5.644645675944386
0.0155 6367.096328891344 1.00026058652973 1.548765345868885 277.7738622062669 5.608815299156609
0.0156 6367.110390365529 1.000260104543792 1.548687126154456 277.682462624059 5.5730598091196
0.0157 6367.124501698612 1.000259621971276 1.548608856067235 277.5907389590205 5.537380291050273
0.0158 6367.138662923185 1.000259138819556 1.548530535581114 277.4986909992994 5.501777822599433
0.0159 6367.152874071859 1.00025865509599 1.54845216467111 277.406318532919 5.466253473787073
0.016 6367.167135177266 1.000258170807929 1.548373743313312 277.3136213477732 5.43080830693842
0.0161 6367.181446272053 1.000257685962711 1.548295271484863 277.2205992316548 5.39544337663417
0.0162 6367.195807388886 1.000257200567661 1.548216749164021 277.1272519722387 5.360159729643209
0.0163 6367.210218560446 1.000256714630094 1.548138176330114 277.0335793570993 5.324958404869536
0.0164 6367.22467981943 1.000256228157311 1.548059552963497 276.9395811737044 5.289840433290848
0.0165 6367.239191198549 1.000255741156601 1.547980879045688 276.8452572094333 5.254806837906665
0.0166 6367.253752730529 1.000255253635242 1.547902154559168 276.7506072515588 5.219858633673868
0.0167 6367.268364448111 1.000254765600495 1.54782337948755 276.6556310872769 5.184996827460504
0.0168 6367.283026384047 1.000254277059611 1.5477445538155 276.5603285036949 5.150222417984858
0.0169 6367.297738571101 1.000253788019825 1.547665677528741 276.4646992878432 5.115536395763978
0.017 6367.312501042051 1.000253298488361 1.547586750614052 276.3687432266696 5.080939743056398
0.0171 6367.327313829684 1.000252808472426 1.547507773059306 276.2724601070566 5.046433433814125
0.0172 6367.342176966797 1.000252317979215 1.547428744853344 276.175849715822 5.012018433628857
0.0173 6367.357090486195 1.000251827015906 1.547349665986201 276.07891183973 4.977695699683114
0.0174 6367.372054420698 1.000251335589665 1.547270536448826 275.9816462654625 4.943466180687477
0.0175 6367.387068803127 1.000250843707638 1.547191356233313 275.8840527796714 4.909330816847821
0.0176 6367.402133666316 1.000250351376962 1.547112125332736 275.7861311689438 4.875290539801905
0.0177 6367.417249043102 1.000249858604755 1.547032843741248 275.6878812198373 4.84134627258164
0.0178 6367.43241496633 1.000249365398117 1.546953511454066 275.5893027188562 4.807498929555437
0.0179 6367.447631468851 1.000248871764136 1.546874128467391 275.4903954524692 4.773749416385741
0.018 6367.46289858352 1.000248377709882 1.546794694778503 275.3911592071216 4.740098629985121
0.0181 6367.478216343196 1.000247883242408 1.546715210385714 275.2915937692231 4.706547458465076
0.0182 6367.493584780745 1.000247388368749 1.546635675288341 275.1916989251598 4.673096781093694
0.0183 6367.509003929029 1.000246893095927 1.546556089486748 275.0914744613118 4.639747468255925
0.0184 6367.524473820919 1.000246397430942 1.546476452982303 274.9909201640238 4.606500381398871
0.0185 6367.539994489286 1.00024590138078 1.546396765777445 274.8900358196405 4.573356372999566
0.0186 6367.555565967 1.000245404952405 1.546317027875601 274.7888212145007 4.540316286519667
0.0187 6367.571188286932 1.000244908152769 1.546237239281211 274.6872761349431 4.507380956364887
0.0188 6367.586861481954 1.0002444109888 1.546157399999739 274.5854003673006 4.474551207841382
0.0189 6367.602585584936 1.000243913467411 1.546077510037636 274.483193697918 4.441827857120625
0.019 6367.618360628746 1.000243415595496 1.545997569402415 274.3806559131516 4.409211711199252
0.0191 6367.634186646253 1.000242917379927 1.545917578102542 274.2777867993581 4.376703567856077
0.0192 6367.650063670318 1.000242418827561 1.545837536147507 274.1745861429353 4.344304215626731
0.0193 6367.665991733803 1.000241919945233 1.545757443547795 274.0710537302811 4.312014433752942
0.0194 6367.681970869565 1.000241420739759 1.545677300314874 273.9671893478288 4.279834992156926
0.0195 6367.698001110454 1.000240921217936 1.545597106461232 273.8629927820474 4.247766651405327
0.0196 6367.714082489317 1.00024042138654 1.545516862000304 273.7584638194411 4.215810162674042
0.0197 6367.730215038992 1.000239921252326 1.545436566946575 273.6536022465497 4.183966267713926
0.0198 6367.746398792317 1.000239420822031 1.545356221315424 273.5484078499425 4.152235698815613
0.0199 6367.762633782116 1.000238920102368 1.545275825123281 273.4428804162479 4.120619178785882
0.02 6367.778920041206 1.000238419100033 1.545195378387503 273.3370197321595 4.08911742091755
0.0201 6367.795257602401 1.000237917821698 1.545114881126459 273.2308255843944 4.057731128946275
0.0202 6367.811646498499 1.000237416274013 1.545034333359444 273.1242977597584 4.026460997039872
0.0203 6367.828086762292 1.00023691446361 1.544953735106765 273.0174360451045 3.995307709756855
