#theta R n z T P_w
0 6365.5 1.000331917082248 1.560324351282931 288.15 13.1298308380101
0.0001 6365.506698014227 1.000331594166854 1.560254928708877 288.1064629075221 13.09306648530617
0.0002 6365.51344023146 1.000331269525579 1.560185468666209 288.0626384955116 13.05615085526428
0.0003 6365.520226675757 1.000330943164672 1.560115970950222 288.0185266075799 13.01908542426937
0.0004 6365.527057371311 1.000330615090408 1.560046435357405 287.9741270864814 12.98187167379468
0.0005 6365.533932342441 1.000330285309095 1.559976861685221 287.9294397741309 12.9445110903362
0.0006000000000000001 6365.5408516136 1.000329953827066 1.559907249732219 287.8844645115977 12.90700516532692
0.0007 6365.547815209372 1.000329620650686 1.559837599297975 287.8392011390823 12.86935539503607
0.0008 6365.554823154466 1.000329285786346 1.559767910183155 287.7936494959694 12.83156328053198
0.0009000000000000001 6365.561875473724 1.000328949240469 1.559698182189392 287.7478094207921 12.79363032757071
0.001 6365.568972192114 1.000328611019502 1.559628415119487 287.7016807512622 12.75555804653835
0.0011 6365.576113334727 1.000328271129924 1.559558608777187 287.6552633242753 12.71734795237325
0.0012 6365.583298926788 1.000327929578239 1.559488762967343 287.608556975876 12.67900156445392
0.0013 6365.590528993644 1.00032758637098 1.559418877495848 287.5615615413166 12.64052040656437
0.0014 6365.597803560765 1.000327241514706 1.559348952169727 287.5142768550276 12.60190600678613
0.0015 6365.60512265375 1.000326895016006 1.559278986796889 287.4667027506238 12.56315989741915
0.0016 6365.61248629832 1.000326546881494 1.559208981186488 287.4188390609219 12.524283614912
0.0017 6365.619894520317 1.00032619711781 1.559138935148646 287.3706856179405 12.48527869977705
0.0018 6365.627347345709 1.000325845731624 1.559068848494561 287.3222422528942 12.44614669650077
0.0019 6365.634844800583 1.000325492729629 1.558998721036458 287.2735087962113 12.40688915347274
0.002 6365.64238691115 1.000325138118546 1.5589285525877 287.2244850775281 12.36750762289514
0.0021 6365.649973703737 1.000324781905122 1.558858342962682 287.1751709257063 12.32800366071111
0.0022 6365.657605204797 1.000324424096128 1.558788091976848 287.1255661688214 12.28837882650883
0.0023 6365.665281440897 1.000324064698363 1.558717799446755 287.0756706341684 12.2486346834398
0.0024 6365.673002438724 1.000323703718651 1.558647465189999 287.0254841482919 12.20877279815534
0.0025 6365.680768225084 1.000323341163839 1.558577089025262 286.9750065369557 12.16879474069582
0.0026 6365.688578826897 1.000322977040802 1.558506670772319 286.9242376251672 12.12870208442193
0.0027 6365.696434271204 1.000322611356437 1.558436210251962 286.873177237171 12.08849640592216
0.0028 6365.704334585159 1.000322244117666 1.55836570728617 286.8218251964671 12.04817928493863
0.0029 6365.712279796029 1.000321875331438 1.558295161697867 286.7701813258103 12.00775230427861
0.003 6365.720269931199 1.000321505004722 1.558224573311191 286.7182454472048 11.96721704972115
0.0031 6365.728305018167 1.000321133144515 1.558153941951293 286.6660173819158 11.92657510993742
0.0032 6365.736385084543 1.000320759757833 1.558083267444416 286.6134969504695 11.88582807640138
0.0033 6365.744510158049 1.000320384851719 1.558012549617946 286.5606839726828 11.8449775433232
0.0034 6365.752680266519 1.000320008433238 1.557941788300301 286.5075782676275 11.80402510753187
0.0035 6365.760895437898 1.000319630509477 1.55787098332101 286.4541796536604 11.76297236840804
0.0036 6365.769155700244 1.000319251087547 1.557800134510712 286.4004879484168 11.72182092778917
0.0037 6365.777461081719 1.000318870174582 1.557729241701101 286.3465029688285 11.68057238989249
0.0038 6365.785811610597 1.000318487777736 1.557658304725047 286.2922245311182 11.63922836121958
0.0039 6365.794207315262 1.000318103904186 1.557587323416505 286.2376524507989 11.59779045046535
0.004 6365.802648224201 1.000317718561131 1.557516297610434 286.182786542692 11.55626026844023
0.0041 6365.811134366012 1.000317331755792 1.557445227143077 286.1276266209214 11.51463942797404
0.004200000000000001 6365.819665769396 1.00031694349541 1.557374111851626 286.0721724989252 11.47292954383321
0.0043 6365.828242463162 1.000316553787248 1.557302951574463 286.0164239894497 11.43113223262427
0.0044 6365.836864476219 1.00031616263859 1.557231746151072 285.9603809045733 11.38924911271941
0.004500000000000001 6365.845531837587 1.00031577005674 1.557160495422071 285.9040430556828 11.34728180414629
0.0046 6365.854244576384 1.000315376049021 1.557089199229141 285.8474102535027 11.30523192851752
0.0047 6365.863002721831 1.000314980622778 1.557017857415119 285.7904823080956 11.26310110893775
0.0048 6365.871806303254 1.000314583785376 1.556946469824029 285.7332590288501 11.22089096990184
0.0049 6365.880655350075 1.000314185544198 1.556875036300892 285.6757402245102 11.17860313722351
0.005 6365.889549891821 1.000313785906647 1.556803556691946 285.6179257031639 11.13623923793308
0.0051 6365.898489958116 1.000313384880146 1.556732030844548 285.5598152722431 11.09380090018399
0.005200000000000001 6365.907475578686 1.000312982472135 1.556660458607128 285.501408738541 11.05128975317196
0.0053 6365.916506783352 1.000312578690073 1.556588839829345 285.4427059082126 11.00870742704103
0.0054 6365.925583602033 1.000312173541439 1.556517174361909 285.3837065867859 10.96605555279799
0.005500000000000001 6365.934706064748 1.000311767033728 1.556445462056754 285.324410579139 10.92333576220099
0.0056 6365.943874201606 1.000311359174454 1.556373702766837 285.2648176895585 10.88054968770779
0.0057 6365.953088042819 1.000310949971148 1.556301896346354 285.2049277216751 10.83769896233435
0.0058 6365.962347618688 1.000310539431358 1.556230042650637 285.144740478528 10.7947852196068
0.0059 6365.97165295961 1.00031012756265 1.556158141536132 285.0842557625359 10.75181009344541
0.006 6365.981004096074 1.000309714372607 1.556086192860449 285.0234733755204 10.70877521808646
0.0061 6365.990401058662 1.000309299868825 1.556014196482354 284.9623931186942 10.66568222797864
0.006200000000000001 6365.999843878051 1.000308884058921 1.555942152261756 284.9010147926668 10.62253275769219
0.0063 6366.009332585005 1.000308466950526 1.555870060059722 284.8393381974687 10.57932844184012
0.0064 6366.01886721038 1.000308048551285 1.555797919738459 284.777363132533 10.53607091497033
0.006500000000000001 6366.02844778512 1.000307628868861 1.555725731161387 284.7150893967195 10.49276181148661
0.0066 6366.03807434026 1.000307207910931 1.555653494193039 284.6525167883086 10.44940276554881
0.0067 6366.047746906921 1.000306785685187 1.555581208699145 284.5896451050133 10.40599541098534
0.0068 6366.057465516314 1.000306362199336 1.555508874546552 284.5264741439613 10.36254138118516
0.006900000000000001 6366.067230199734 1.000305937461099 1.555436491603325 284.4630037017304 10.31904230902635
0.007 6366.077040988563 1.00030551147821 1.555364059738697 284.3992335743427 10.27549982677607
0.0071 6366.086897914269 1.000305084258418 1.555291578823002 284.3351635572529 10.23191556598644
0.007200000000000001 6366.096801008403 1.000304655809487 1.555219048727849 284.2707934453778 10.18829115741874
0.0073 6366.106750302602 1.000304226139192 1.555146469325961 284.20612303309 10.14462823094317
0.0074 6366.116745828582 1.000303795255321 1.555073840491227 284.1411521142185 10.10092841544273
0.007500000000000001 6366.126787618145 1.000303363165675 1.555001162098783 284.0758804820601 10.05719333872506
0.0076 6366.136875703171 1.00030292987807 1.554928434024874 284.0103079293916 10.01342462743405
0.0077 6366.147010115625 1.00030249540033 1.554855656146981 283.9444342484397 9.969623906933935
0.007800000000000001 6366.157190887548 1.000302059740293 1.554782828343726 283.8782592309407 9.925792801252472
0.007900000000000001 6366.167418051062 1.000301622905809 1.554709950494914 283.8117826680985 9.881932932957081
0.008 6366.177691638367 1.00030118490474 1.554637022481589 283.745004350615 9.838045923078239
0.0081 6366.188011681742 1.000300745744955 1.55456404418598 283.6779240686773 9.794133391005419
0.008200000000000001 6366.198378213541 1.000300305434338 1.55449101549144 283.6105416119821 9.7501969544064
0.0083 6366.208791266196 1.000299863980782 1.554417936282597 283.5428567697235 9.706238229123285
0.008400000000000001 6366.219250872213 1.00029942139219 1.554344806445198 283.4748693306168 9.662258829091702
0.008500000000000001 6366.229757064171 1.000298977676475 1.55427162586626 283.4065790828867 9.618260366236937
0.0086 6366.240309874728 1.000298532841561 1.55419839443394 283.337985814267 9.57424445037789
0.008700000000000001 6366.250909336612 1.000298086895378 1.554125112037624 283.2690893120247 9.53021268914627
0.008800000000000001 6366.261555482622 1.000297639845867 1.554051778567897 283.1998893629537 9.486166687886751
0.0089 6366.272248345634 1.00029719170098 1.553978393916527 283.1303857533811 9.442108049564817
0.009000000000000001 6366.282987958587 1.000296742468673 1.553904957976518 283.0605782691845 9.398038374682104
0.0091 6366.293774354497 1.000296292156913 1.553831470642085 282.9904666957685 9.353959261165649
0.0092 6366.304607566446 1.000295840773674 1.553757931808558 282.9200508181005 9.309872304294599
0.009300000000000001 6366.315487627587 1.000295388326939 1.553684341372584 282.8493304206867 9.265779096589716
0.0094 6366.326414571137 1.000294934824695 1.553610699231996 282.7783052876074 9.221681227740081
0.0095 6366.337388430385 1.000294480274941 1.55353700528577 282.7069752024998 9.177580284496557
0.009600000000000001 6366.348409238682 1.000294024685677 1.553463259434194 282.6353399485696 9.133477850583887
0.0097 6366.359477029446 1.000293568064913 1.553389461578692 282.5633993086025 9.089375506612791
0.0098 6366.37059183616 1.000293110420666 1.553315611621945 282.4911530649587 9.045274829981276
0.009900000000000001 6366.381753692373 1.000292651760954 1.553241709467817 282.4186009995727 9.001177394779802
0.01 6366.392962631694 1.000292192093807 1.553167755021396 282.345742893989 8.957084771718124
0.0101 6366.404218687796 1.000291731427254 1.553093748189042 282.2725785293263 8.912998528009094
0.0102 6366.415521894414 1.000291269769334 1.55301968887821 282.1991076863072 8.868920227292209
0.0103 6366.426872285343 1.000290807128087 1.552945576997734 282.1253301452701 8.824851429546348
0.0104 6366.438269894438 1.000290343511559 1.552871412457559 282.0512456861514 8.780793690985023
0.0105 6366.449714755616 1.000289878927801 1.55279719516885 281.9768540884974 8.736748563969625
0.0106 6366.46120690285 1.000289413384864 1.552722925044037 281.9021551314758 8.69271759692273
0.0107 6366.472746370171 1.000288946890807 1.552648601996772 281.827148593888 8.648702334241522
0.0108 6366.484333191669 1.000288479453689 1.552574225941909 281.751834254151 8.604704316194022
0.0109 6366.495967401488 1.000288011081574 1.552499796795523 281.6762118903274 8.560725078843364
0.011 6366.507649033829 1.000287541782526 1.552425314474952 281.6002812801129 8.516766153947966
0.0111 6366.519378122946 1.000287071564613 1.552350778898712 281.5240422008486 8.472829068875813
0.0112 6366.531154703152 1.000286600435905 1.552276189986565 281.4474944295151 8.428915346508655
0.0113 6366.542978808807 1.000286128404473 1.552201547659514 281.370637742756 8.385026505163527
0.0114 6366.554850474326 1.000285655478389 1.55212685183979 281.2934719168837 8.341164058504082
0.0115 6366.566769734175 1.000285181665727 1.552052102450811 281.215996727862 8.297329515438891
0.0116 6366.578736622873 1.000284706974562 1.551977299417256 281.1382119513236 8.253524380040218
0.0117 6366.590751174988 1.000284231412967 1.551902442665045 281.0601173625759 8.20975015145631
0.0118 6366.602813425136 1.000283754989017 1.551827532121304 280.9817127366131 8.166008323827199
0.0119 6366.614923407984 1.000283277710787 1.551752567714413 280.9029978481043 8.122300386187607
0.012 6366.627081158244 1.000282799586351 1.551677549373926 280.8239724714111 8.078627822386684
0.0121 6366.639286710678 1.000282320623783 1.55160247703069 280.7446363805938 8.034992111001388
0.0122 6366.651540100091 1.000281840831153 1.551527350616755 280.6649893494108 7.991394725246892
0.0123 6366.663841361336 1.000281360216533 1.551452170065407 280.5850311513135 7.947837132884213
0.0124 6366.676190529311 1.000280878787991 1.551376935311169 280.5047615594812 7.9043207961507
0.0125 6366.688587638953 1.000280396553595 1.551301646289775 280.4241803468034 7.860847171661737
0.0126 6366.70103272525 1.000279913521409 1.551226302938219 280.3432872858742 7.817417710319491
0.0127 6366.713525823226 1.000279429699495 1.551150905194682 280.2620821490335 7.774033857247384
0.0128 6366.726066967948 1.000278945095912 1.551075452998588 280.1805647083373 7.730697051686723
0.0129 6366.738656194526 1.000278459718715 1.55099994629068 280.0987347355816 7.687408726922328
0.013 6366.751293538108 1.000277973575957 1.550924385012786 280.0165920022963 7.644170310192711
0.0131 6366.763979033883 1.000277486675686 1.550848769108029 279.934136279763 7.600983222613181
0.0132 6366.776712717075 1.000276999025946 1.550773098520821 279.8513673390092 7.55784887908682
0.0133 6366.78949462295 1.000276510634776 1.550697373196712 279.7682849508259 7.514768688228303
0.0134 6366.802324786807 1.000276021510213 1.550621593082531 279.6848888857556 7.471744052272679
0.0135 6366.815203243984 1.000275531660284 1.550545758126313 279.6011789141047 7.428776366996956
0.0136 6366.828130029854 1.000275041093015 1.550469868277343 279.5171548059487 7.385867021639001
0.0137 6366.841105179823 1.000274549816425 1.55039392348611 279.4328163311505 7.343017398822826
0.0138 6366.854128729332 1.000274057838525 1.550317923704369 279.3481632593424 7.300228874466272
0.0139 6366.867200713854 1.000273565167323 1.55024186888504 279.2631953599497 7.257502817710218
0.014 6366.880321168896 1.000273071810817 1.550165758982333 279.177912402179 7.21484059083028
0.0141 6366.893490129994 1.000272577777002 1.550089593951654 279.0923141550419 7.172243549166847
0.0142 6366.906707632716 1.000272083073862 1.550013373749609 279.006400387343 7.129713041037776
0.0143 6366.919973712663 1.000271587709376 1.54993709833407 278.9201708676918 7.087250407663456
0.0144 6366.933288405458 1.000271091691513 1.549860767664113 278.8336253645206 7.044856983095147
0.0145 6366.94665174676 1.000270595028237 1.549784381700033 278.7467636460605 7.002534094123507
0.0146 6366.960063772251 1.0002700977275 1.549707940403362 278.6595854803712 6.960283060213794
0.0147 6366.97352451764 1.000269599797248 1.54963144373685 278.5720906353412 6.918105193426992
0.0148 6366.987034018664 1.000269101245417 1.549554891664419 278.4842788786872 6.876001798341541
0.0149 6367.000592311084 1.000268602079933 1.549478284151283 278.3961499779547 6.833974171975672
0.015 6367.014199430686 1.000268102308714 1.549401621163826 278.3077037005413 6.792023603721563
0.0151 6367.02785541328 1.000267601939665 1.549324902669668 278.2189398136792 6.750151375260263
0.0152 6367.041560294698 1.000267100980686 1.549248128637599 278.1298580844644 6.708358760499681
0.0153 6367.055314110795 1.00026659943966 1.549171299037701 278.0404582798336 6.666647025487986
0.0154 6367.069116897447 1.000266097324465 1.549094413841181 277.9507401665932 6.625017428352653
0.0155 6367.082968690552 1.000265594642964 1.549017473020533 277.8607035114136 6.583471219223384
0.0156 6367.096869526025 1.00026509140301 1.548940476549419 277.7703480808353 6.542009640161205
0.0157 6367.110819439804 1.000264587612445 1.548863424402706 277.6796736412747 6.500633925088148
0.0158 6367.124818467842 1.000264083279097 1.548786316556471 277.5886799590238 6.459345299714845
0.0159 6367.138866646113 1.000263578410783 1.548709152988014 277.4973668002684 6.418144981476792
0.016 6367.152964010603 1.000263073015309 1.548631933675801 277.405733931082 6.377034179460476
0.0161 6367.167110597319 1.000262567100465 1.548554658599544 277.3137811174255 6.336014094332914
0.0162 6367.181306442281 1.000262060674028 1.548477327740123 277.2215081251715 6.29508591828237
0.0163 6367.195551581524 1.000261553743765 1.548399941079621 277.1289147200918 6.254250834943843
0.0164 6367.209846051097 1.000261046317426 1.548322498601314 277.0360006678696 6.213510019335796
0.0165 6367.224189887062 1.000260538402748 1.548245000289675 276.9427657340997 6.172864637792307
0.0166 6367.238583125491 1.000260030007452 1.548167446130376 276.8492096843055 6.132315847903634
0.0167 6367.253025802474 1.000259521139248 1.548089836110257 276.755332283922 6.091864798442022
0.0168 6367.267517954104 1.000259011805828 1.548012170217382 276.6611332983251 6.051512629308736
0.0169 6367.282059616488 1.00025850201487 1.547934448440949 276.5666124928256 6.011260471466366
0.017 6367.296650825743 1.000257991774036 1.547856670771386 276.4717696326692 5.971109446874481
0.0171 6367.311291617993 1.000257481090973 1.547778837200292 276.3766044830426 5.931060668428554
0.0172 6367.325982029372 1.00025696997331 1.547700947720397 276.2811168090851 5.891115239902057
0.0173 6367.340722096017 1.000256458428662 1.547623002325674 276.1853063758889 5.851274255884265
0.0174 6367.355511854076 1.000255946464626 1.547545001011241 276.0891729485046 5.811538801721315
0.0175 6367.370351339699 1.000255434088783 1.547466943773349 275.9927162919533 5.771909953460398
0.0176 6367.385240589043 1.000254921308697 1.547388830609502 275.8959361712208 5.732388777787385
0.0177 6367.400179638268 1.000254408131912 1.547310661518299 275.7988323512571 5.692976331967754
0.0178 6367.415168523538 1.000253894565957 1.547232436499512 275.7014045970008 5.653673663797868
0.0179 6367.43020728102 1.000253380618342 1.547154155554106 275.6036526733723 5.614481811544915
0.018 6367.445295946881 1.000252866296559 1.547075818684185 275.5055763452746 5.575401803890153
0.0181 6367.460434557291 1.000252351608082 1.546997425892993 275.4071753776105 5.536434659879991
0.0182 6367.475623148419 1.000251836560364 1.54691897718497 275.3084495352772 5.497581388868403
0.0183 6367.490861756437 1.000251321160841 1.546840472565633 275.2093985831597 5.458842990460306
0.0184 6367.506150417512 1.000250805416928 1.546761912041721 275.1100222861727 5.420220454474201
0.0185 6367.521489167812 1.000250289336023 1.546683295621072 275.0103204092251 5.381714760875528
0.0186 6367.536878043499 1.000249772925502 1.546604623312672 274.9102927172552 5.343326879738546
0.0187 6367.552317080737 1.00024925619272 1.546525895126652 274.8099389752073 5.305057771186128
0.0188 6367.567806315684 1.000248739145014 1.546447111074282 274.7092589480552 5.266908385348665
0.0189 6367.58334578449 1.000248221789698 1.546368271167936 274.6082524008142 5.228879662319099
0.019 6367.598935523304 1.000247704134068 1.546289375421127 274.5069190985231 5.190972532097669
0.0191 6367.614575568267 1.000247186185396 1.54621042384853 274.4052588062622 5.153187914550981
0.0192 6367.630265955515 1.000246667950934 1.546131416465886 274.303271289153 5.115526719365219
0.0193 6367.646006721174 1.000246149437911 1.546052353290069 274.2009563123705 5.077989846004614
0.0194 6367.661797901363 1.000245630653535 1.545973234339081 274.0983136411427 5.040578183666383
0.0195 6367.677639532193 1.000245111604993 1.545894059632015 273.9953430407448 5.003292611234479
0.0196 6367.693531649765 1.000244592299446 1.545814829189113 273.8920442765292 4.966133997247096
0.0197 6367.709474290168 1.000244072744037 1.545735543031651 273.788417113907 4.929103199847861
0.0198 6367.725467489482 1.000243552945882 1.545656201182074 273.6844613183665 4.892201066750792
0.0199 6367.741511283775 1.000243032912076 1.54557680366386 273.5801766554608 4.85542843519558
0.02 6367.757605709103 1.000242512649689 1.545497350501633 273.4755628908318 4.818786131916389
0.0201 6367.773750801506 1.000241992165769 1.545417841721057 273.3706197902101 4.782274973103122
0.0202 6367.789946597015 1.00024147146734 1.545338277348926 273.2653471194029 4.745895764359561
0.0203 6367.806193131644 1.0002409505614 1.545258657413055 273.1597446443124 4.709649300672812
