#theta R n z T P_w
0 6365.5 1.000315814004069 1.560324351282931 288.15 9.548967882189162
0.0001 6365.506698014227 1.000315531314259 1.560251115273628 288.1064629075221 9.522230171131758
0.0002 6365.51344265918 1.000315246975009 1.56017784994784 288.0626227153278 9.49537278491642
0.0003 6365.520233953743 1.000314960991716 1.560104555129281 288.0184793006723 9.468396890080129
0.0004 6365.527071916912 1.000314673369805 1.560031230642537 287.9740325400716 9.44130365738412
0.0005 6365.5339565678 1.000314384114726 1.559957876313155 287.9292823092968 9.414094261739965
0.0006000000000000001 6365.540887925633 1.000314093231958 1.559884491967573 287.8842284833862 9.386769882146179
0.0007 6365.547866009745 1.000313800727003 1.559811077433084 287.8388709366567 9.359331701624457
0.0008 6365.554890839585 1.000313506605393 1.559737632537866 287.793209542698 9.331780907144825
0.0009000000000000001 6365.561962434713 1.000313210872684 1.559664157111085 287.747244174367 9.304118689550629
0.001 6365.569080814797 1.000312913534458 1.559590650982689 287.7009747038227 9.276346243508076
0.0011 6365.576245999618 1.000312614596322 1.559517113983624 287.6544010024853 9.248464767409306
0.0012 6365.583458009063 1.000312314063912 1.559443545945658 287.6075229410893 9.220475463331935
0.0013 6365.590716863133 1.000312011942885 1.559369946701438 287.5603403896361 9.192379536938153
0.0014 6365.598022581931 1.000311708238926 1.559296316084535 287.5128532174471 9.164178197433586
0.0015 6365.605375185673 1.000311402957743 1.559222653929503 287.4650612931285 9.135872657472992
0.0016 6365.612774694678 1.000311096105071 1.559148960071617 287.416964484595 9.107464133100931
0.0017 6365.620221129375 1.000310787686669 1.559075234347116 287.3685626590635 9.078953843674594
0.0018 6365.627714510297 1.000310477708317 1.559001476593258 287.3198556830711 9.050343011800321
0.0019 6365.635254858082 1.000310166175824 1.558927686647997 287.2708434224691 9.021632863255935
0.002 6365.642842193474 1.000309853095021 1.558853864350313 287.2215257424172 8.992824626912878
0.0021 6365.650476537322 1.000309538471763 1.558780009540028 287.171902507407 8.963919534675423
0.0022 6365.658157910577 1.000309222311927 1.558706122057876 287.1219735812505 8.934918821398837
0.0023 6365.665886334294 1.000308904621416 1.558632201745524 287.0717388270913 8.90582372482119
0.0024 6365.67366182963 1.000308585406155 1.55855824844544 287.0211981074052 8.876635485487981
0.0025 6365.681484417846 1.000308264672092 1.558484262001099 286.970351284 8.847355346676608
0.0026 6365.689354120303 1.000307942425198 1.558410242256831 286.9191982180331 8.817984554330797
0.0027 6365.697270958461 1.000307618671465 1.558336189057898 286.8677387700058 8.78852435698118
0.0028 6365.705234953884 1.000307293416911 1.558262102250354 286.8159727997571 8.758976005665728
0.0029 6365.713246128233 1.000306966667573 1.558187981681304 286.7639001664878 8.729340753866884
0.003 6365.721304503269 1.000306638429512 1.558113827198659 286.7115207287542 8.699619857431546
0.0031 6365.729410100851 1.000306308708808 1.558039638651315 286.6588343444681 8.66981457449427
0.0032 6365.737562942939 1.000305977511566 1.557965415888962 286.6058408708972 8.63992616540034
0.0033 6365.745763051587 1.000305644843911 1.557891158762269 286.5525401646822 8.609955892638609
0.0034 6365.754010448948 1.000305310711988 1.557816867122839 286.4989320818376 8.579905020764134
0.0035 6365.762305157269 1.000304975121965 1.55774254082314 286.4450164777508 8.549774816320607
0.0036 6365.770647198895 1.000304638080028 1.557668179716544 286.3907932071828 8.519566547762693
0.0037 6365.779036596266 1.000304299592387 1.557593783657384 286.336262124274 8.489281485381506
0.0038 6365.787473371915 1.000303959665269 1.557519352500878 286.2814230825555 8.458920901233142
0.0039 6365.795957548469 1.000303618304924 1.557444886103141 286.22627593495 8.428486069060487
0.004 6365.804489148652 1.00030327551762 1.557370384321207 286.170820533759 8.397978264208369
0.0041 6365.813068195277 1.000302931309644 1.557295847013099 286.1150567306989 8.367398763564664
0.004200000000000001 6365.821694711251 1.000302585687305 1.55722127403762 286.0589843768715 8.336748845465388
0.0043 6365.830368719571 1.000302238656929 1.557146665254643 286.0026033227872 8.306029789628978
0.0044 6365.839090243328 1.000301890224862 1.557072020524856 285.9459134183711 8.275242877080583
0.004500000000000001 6365.8478593057 1.000301540397469 1.556997339709951 285.8889145129514 8.244389390066635
0.0046 6365.856675929958 1.000301189181132 1.556922622672468 285.8316064552708 8.213470611982197
0.0047 6365.865540139462 1.000300836582254 1.556847869275942 285.7739890934989 8.182487827298072
0.0048 6365.874451957658 1.000300482607254 1.556773079384774 285.7160622752198 8.15144232147512
0.0049 6365.883411408085 1.000300127262569 1.556698252864288 285.65782584745 8.120335380894325
0.005 6365.892418514364 1.000299770554654 1.556623389580838 285.5992796566328 8.089168292774101
0.0051 6365.901473300208 1.000299412489983 1.556548489401632 285.5404235486498 8.057942345096949
0.005200000000000001 6365.910575789412 1.000299053075044 1.556473552194795 285.4812573688208 8.026658826529726
0.0053 6365.919726005861 1.000298692316345 1.556398577829392 285.4217809619043 7.995319026343844
0.0054 6365.928923973522 1.000298330220409 1.556323566175541 285.3619941721089 7.963924234341635
0.005500000000000001 6365.938169716449 1.000297966793776 1.556248517104099 285.3018968430814 7.932475740770206
0.0056 6365.947463258779 1.000297602043003 1.556173430487021 285.2414888179368 7.900974836256911
0.0057 6365.956804624732 1.000297235974662 1.556098306197139 285.1807699392401 7.869422811719977
0.0058 6365.966193838613 1.00029686859534 1.556023144108229 285.1197400490186 7.837820958294537
0.0059 6365.975630924805 1.000296499911643 1.555947944095016 285.0583989887672 7.806170567255529
0.006 6365.985115907777 1.000296129930189 1.555872706033162 284.996746599449 7.774472929937435
0.0061 6365.994648812079 1.000295758657612 1.55579742979928 284.9347827214891 7.742729337651046
0.006200000000000001 6366.004229662338 1.000295386100562 1.555722115270948 284.8725071948041 7.71094108161832
0.0063 6366.013858483263 1.000295012265702 1.555646762326682 284.8099198587905 7.679109452885955
0.0064 6366.023535299642 1.000294637159711 1.555571370845919 284.7470205523244 7.647235742245068
0.006500000000000001 6366.033260136343 1.000294260789282 1.55549594070908 284.6838091137678 7.615321240153868
0.0066 6366.043033018311 1.00029388316112 1.555420471797543 284.6202853809799 7.583367236663292
0.0067 6366.052853970567 1.000293504281946 1.555344963993602 284.5564491913118 7.551375021333628
0.0068 6366.062723018213 1.000293124158494 1.55526941718055 284.4923003816178 7.519345883160115
0.006900000000000001 6366.072640186422 1.000292742797509 1.555193831242626 284.4278387882558 7.487281110492567
0.007 6366.082605500447 1.000292360205753 1.555118206064998 284.3630642470929 7.455181990957993
0.0071 6366.092618985615 1.000291976389997 1.555042541533819 284.2979765935055 7.423049811380261
0.007200000000000001 6366.102680667324 1.000291591357026 1.554966837536208 284.2325756623912 7.390885857705668
0.0073 6366.112790571053 1.000291205113639 1.554891093960213 284.1668612881571 7.358691414916861
0.0074 6366.122948722347 1.000290817666643 1.554815310694915 284.1008333047429 7.326467766964242
0.007500000000000001 6366.133155146828 1.000290429022861 1.554739487630262 284.0344915456157 7.294216196682866
0.0076 6366.143409870188 1.000290039189125 1.554663624657249 283.9678358437753 7.261937985715194
0.0077 6366.153712918193 1.000289648172278 1.554587721667788 283.900866031743 7.229634414425323
0.007800000000000001 6366.164064316677 1.000289255979176 1.554511778554806 283.8335819416023 7.197306761839005
0.007900000000000001 6366.174464091544 1.000288862616684 1.554435795212129 283.765983404964 7.164956305546545
0.008 6366.184912268771 1.000288468091679 1.554359771534629 283.6980702529894 7.132584321634382
0.0081 6366.195408874401 1.000288072411047 1.554283707418107 283.6298423163965 7.100192084608087
0.008200000000000001 6366.205953934545 1.000287675581685 1.554207602759336 283.5612994254601 7.067780867312655
0.0083 6366.216547475384 1.000287277610499 1.554131457456081 283.4924414100054 7.03535194085013
0.008400000000000001 6366.227189523165 1.000286878504405 1.554055271407051 283.4232680994263 7.002906574508507
0.008500000000000001 6366.237880104202 1.000286478270328 1.553979044511967 283.353779322685 6.970446035682324
0.0086 6366.248619244875 1.000286076915202 1.553902776671536 283.2839749083122 6.937971589793394
0.008700000000000001 6366.259406971628 1.000285674445972 1.553826467787369 283.2138546844188 6.905484500217161
0.008800000000000001 6366.270243310971 1.000285270869587 1.553750117762118 283.1434184786903 6.872986028200911
0.0089 6366.281128289477 1.000284866193009 1.553673726499398 283.0726661183979 6.840477432790382
0.009000000000000001 6366.292061933784 1.000284460423205 1.553597293903847 283.0015974304055 6.807959970753679
0.0091 6366.303044270591 1.000284053567151 1.553520819880975 282.9302122411567 6.775434896497266
0.0092 6366.314075326663 1.00028364563183 1.553444304337352 282.8585103766935 6.742903461995656
0.009300000000000001 6366.325155128819 1.000283236624233 1.553367747180583 282.7864916626735 6.710366916721094
0.0094 6366.336283703948 1.000282826551357 1.553291148319123 282.7141559243404 6.67782650755202
0.0095 6366.347461078992 1.000282415420208 1.553214507662516 282.6415029865537 6.645283478708481
0.009600000000000001 6366.358687280956 1.000282003237795 1.553137825121234 282.5685326737829 6.612739071671663
0.0097 6366.369962336906 1.000281590011136 1.553061100606779 282.4952448101129 6.580194525108921
0.0098 6366.381286273962 1.000281175747255 1.552984334031617 282.4216392192446 6.547651074796397
0.009900000000000001 6366.392659119306 1.00028076045318 1.552907525309181 282.3477157245123 6.515109953549623
0.01 6366.404080900174 1.000280344135945 1.552830674353944 282.273474148872 6.482572391141276
0.0101 6366.41555164386 1.000279926802592 1.55275378108128 282.198914314907 6.450039614227009
0.0102 6366.427071377716 1.000279508460163 1.552676845407659 282.1240360448463 6.417512846276605
0.0103 6366.438640129146 1.00027908911571 1.552599867250457 282.0488391605521 6.384993307492444
0.0104 6366.450257925609 1.000278668776286 1.552522846528073 281.9733234835438 6.352482214743585
0.0105 6366.46192479462 1.000278247448948 1.55244578315994 281.8974888349684 6.319980781477128
0.0106 6366.473640763748 1.00027782514076 1.552368677066357 281.8213350356358 6.287490217657863
0.0107 6366.485405860612 1.000277401858787 1.552291528168759 281.7448619060191 6.255011729692766
0.0108 6366.497220112886 1.0002769776101 1.552214336389449 281.6680692662425 6.222546520350819
0.0109 6366.509083548293 1.00027655240177 1.552137101651818 281.5909569360932 6.190095788693172
0.011 6366.520996194609 1.000276126240872 1.552059823880226 281.5135247350394 6.157660730005975
0.0111 6366.532958079661 1.000275699134485 1.551982502999971 281.4357724822061 6.12524253571608
0.0112 6366.544969231321 1.000275271089692 1.551905138937355 281.357699996411 6.092842393331834
0.0113 6366.557029677518 1.000274842113572 1.551827731619773 281.2793070961351 6.060461486356981
0.0114 6366.569139446221 1.000274412213213 1.551750280975468 281.2005935995634 6.028100994234337
0.0115 6366.581298565454 1.000273981395699 1.551672786933795 281.12155932455 5.995762092257967
0.0116 6366.593507063283 1.00027354966812 1.551595249425041 281.0422040886596 5.963445951517328
0.0117 6366.605764967824 1.000273117037564 1.55151766838048 280.962527709143 5.931153738815006
0.0118 6366.618072307238 1.000272683511121 1.551440043732424 280.8825300029561 5.898886616601734
0.0119 6366.630429109729 1.000272249095882 1.55136237541415 280.8022107867645 5.866645742906839
0.012 6366.64283540355 1.000271813798938 1.551284663359891 280.7215698769268 5.834432271259574
0.0121 6366.655291216994 1.00027137762738 1.551206907504951 280.6406070895413 5.802247350636827
0.0122 6366.6677965784 1.000270940588299 1.551129107785582 280.559322240399 5.770092125373328
0.0123 6366.68035151615 1.000270502688785 1.551051264139039 280.4777151450247 5.737967735107645
0.0124 6366.692956058666 1.00027006393593 1.550973376503546 280.3957856186715 5.705875314709605
0.0125 6366.705610234413 1.000269624336821 1.55089544481834 280.3135334763145 5.67381599420819
0.0126 6366.718314071897 1.000269183898547 1.550817469023689 280.2309585326688 5.641790898729077
0.0127 6366.731067599665 1.000268742628194 1.550739449060776 280.1480606021772 5.609801148421003
0.0128 6366.743870846301 1.000268300532848 1.550661384871814 280.0648394990407 5.577847858398547
0.0129 6366.756723840432 1.000267857619591 1.550583276400018 279.9812950371937 5.545932138664737
0.013 6366.76962661072 1.000267413895504 1.550505123589583 279.8974270303228 5.514055094050049
0.0131 6366.782579185865 1.000266969367666 1.550426926385679 279.8132352918777 5.482217824149421
0.0132 6366.795581594608 1.000266524043152 1.550348684734489 279.7287196350484 5.450421423246286
0.0133 6366.808633865722 1.000266077929035 1.550270398583182 279.6438798728058 5.418666980261592
0.0134 6366.82173602802 1.000265631032385 1.550192067879894 279.5587158178727 5.386955578676484
0.0135 6366.834888110345 1.000265183360268 1.55011369257379 279.473227282759 5.355288296479819
0.0136 6366.84809014158 1.000264734919748 1.550035272614953 279.3874140797324 5.323666206091847
0.0137 6366.86134215064 1.000264285717881 1.54995680795455 279.3012760208416 5.292090374308179
0.0138 6366.874644166473 1.000263835761723 1.549878298544636 279.2148129179285 5.260561862239667
0.0139 6366.887996218059 1.000263385058323 1.549799744338354 279.1280245826164 5.229081725244098
0.014 6366.901398334413 1.000262933614727 1.549721145289716 279.0409108263156 5.197651012864907
0.0141 6366.91485054458 1.000262481437976 1.549642501353797 278.9534714602295 5.166270768770339
0.0142 6366.928352877635 1.000262028535104 1.549563812486635 278.8657062953724 5.13494203069726
0.0143 6366.941905362685 1.000261574913142 1.549485078645254 278.7776151425459 5.103665830380649
0.0144 6366.955508028866 1.000261120579113 1.54940629978765 278.689197812368 5.072443193502615
0.0145 6366.969160905343 1.000260665540035 1.549327475872794 278.6004541152678 5.041275139629201
0.0146 6366.98286402131 1.00026020980292 1.549248606860669 278.5113838614851 5.010162682149848
0.0147 6366.996617405986 1.000259753374774 1.549169692712197 278.4219868610884 4.979106828223554
0.0148 6367.010421088623 1.000259296262596 1.549090733389287 278.3322629239509 4.948108578711134
0.0149 6367.024275098494 1.000258838473377 1.549011728854843 278.2422118597864 4.917168928128561
0.015 6367.038179464902 1.000258380014103 1.54893267907271 278.1518334781371 4.886288864584354
0.0151 6367.052134217172 1.00025792089175 1.548853584007731 278.0611275883797 4.855469369723688
0.0152 6367.066139384658 1.000257461113289 1.548774443625718 277.9700939997255 4.824711418671022
0.0153 6367.080194996733 1.000257000685681 1.548695257893469 277.8787325212378 4.794015979979251
0.0154 6367.094301082797 1.000256539615879 1.548616026778705 277.7870429618205 4.763384015569411
0.0155 6367.108457672272 1.00025607791083 1.548536750250159 277.6950251302295 4.732816480678931
0.0156 6367.122664794604 1.000255615577469 1.548457428277501 277.6026788350731 4.702314323806483
0.0157 6367.136922479257 1.000255152622725 1.548378060831409 277.5100038848294 4.671878486663224
0.0158 6367.15123075572 1.000254689053515 1.548298647883471 277.4170000878229 4.641509904110998
0.0159 6367.165589653499 1.000254224876751 1.548219189406258 277.3236672522538 4.611209504118639
0.016 6367.179999202123 1.000253760099331 1.548139685373317 277.2300051861984 4.58097820770906
0.0161 6367.19445943114 1.000253294728145 1.548060135759128 277.1360136975908 4.550816928901288
0.0162 6367.208970370114 1.000252828770074 1.54798054053916 277.041692594259 4.520726574670276
0.0163 6367.223532048629 1.000252362231987 1.547900899689805 276.9470416839125 4.490708044891996
0.0164 6367.238144496286 1.000251895120743 1.547821213188415 276.8520607741428 4.460762232293019
0.0165 6367.252807742703 1.00025142744319 1.547741481013329 276.756749672429 4.430890022402627
0.0166 6367.267521817515 1.000250959206167 1.547661703143777 276.6611081861496 4.40109229350732
0.0167 6367.282286750372 1.000250490416498 1.547581879559991 276.5651361225827 4.37136991660223
0.0168 6367.297102570938 1.000250021081 1.547502010243106 276.4688332888999 4.341723755341381
0.0169 6367.311969308894 1.000249551206476 1.547422095175226 276.3721994921901 4.312154665997703
0.017 6367.326886993932 1.000249080799716 1.547342134339384 276.2752345394418 4.282663497410935
0.0171 6367.34185565576 1.0002486098675 1.547262127719584 276.1779382375606 4.253251090947074
0.0172 6367.356875324096 1.000248138416594 1.547182075300739 276.0803103933753 4.223918280454805
0.0173 6367.371946028673 1.000247666453753 1.547101977068678 275.9823508136259 4.19466589221726
0.0174 6367.387067799233 1.000247193985719 1.547021833010211 275.8840593049875 4.165494744915113
0.0175 6367.402240665529 1.000246721019219 1.546941643113046 275.7854356740585 4.1364056495797
0.0176 6367.417464657327 1.000246247560969 1.546861407365833 275.6864797273719 4.107399409553867
0.0177 6367.432739804401 1.000245773617671 1.54678112575816 275.5871912713959 4.078476820449998
0.0178 6367.448066136532 1.000245299196014 1.546700798280495 275.4875701125396 4.049638670110446
0.0179 6367.463443683514 1.00024482430267 1.546620424924301 275.3876160571589 4.020885738568647
0.018 6367.478872475145 1.000244348944301 1.546540005681877 275.2873289115563 3.992218798009193
0.0181 6367.494352541234 1.000243873127552 1.546459540546495 275.1867084819813 3.963638612728662
0.0182 6367.509883911593 1.000243396859055 1.546379029512334 275.0857545746479 3.935145939102159
0.0183 6367.525466616043 1.000242920145425 1.546298472574487 274.9844669957228 3.906741525542154
0.0184 6367.54110068441 1.000242442993266 1.546217869728912 274.882845551337 3.878426112464773
0.0185 6367.556786146523 1.000241965409163 1.546137220972541 274.7808900475983 3.850200432256691
0.0186 6367.57252303222 1.000241487399688 1.546056526303167 274.6786002905668 3.822065209232952
0.0187 6367.58831137134 1.000241008971396 1.5459757857195 274.575976086291 3.7940211596119
0.0188 6367.604151193724 1.000240530130827 1.54589499922112 274.4730172407957 3.766068991477691
0.0189 6367.62004252922 1.000240050884505 1.545814166808569 274.3697235600702 3.73820940474371
0.019 6367.635985407675 1.000239571238938 1.545733288483198 274.2660948501156 3.710443091132666
0.0191 6367.651979858937 1.000239091200616 1.545652364247302 274.1621309169094 3.682770734135018
0.0192 6367.668025912858 1.000238610776016 1.545571394104057 274.0578315664233 3.655193008982565
0.0193 6367.68412359929 1.000238129971594 1.545490378057523 273.9531966046169 3.627710582616452
0.0194 6367.700272948082 1.000237648793792 1.545409316112619 273.8482258374678 3.600324113665251
0.0195 6367.716473989086 1.000237167249034 1.545328208275164 273.7429190709416 3.573034252408245
0.0196 6367.732726752151 1.000236685343726 1.545247054551845 273.6372761110159 3.545841640753484
0.0197 6367.749031267127 1.000236203084258 1.545165854950197 273.531296763674 3.518746912208842
0.0198 6367.765387563858 1.000235720477001 1.545084609478691 273.4249808349231 3.491750691859936
0.0199 6367.781795672186 1.000235237528308 1.545003318146576 273.3183281307878 3.464853596342722
0.02 6367.798255621954 1.000234754244514 1.544921980964029 273.2113384572989 3.438056233815475
0.0201 6367.814767442995 1.000234270631937 1.544840597942069 273.1040116205344 3.411359203944912
0.0202 6367.83133116514 1.000233786696876 1.544759169092539 272.99634742659 3.384763097875215
0.0203 6367.847946818218 1.000233302445609 1.544677694428189 272.8883456815851 3.358268498206874
