#theta R n z T P_w
0 6365.5 1.000294343233164 1.560324351282931 288.15 4.774483941094581
0.0001 6365.506698014227 1.000294114177466 1.560246032647002 288.1064629075221 4.761115085565879
0.0002 6365.513445894896 1.000293883619505 1.560167695536043 288.062601683176 4.747679958090327
0.0003 6365.520243654009 1.000293651563154 1.560089339821233 288.0184162489389 4.734179203784716
0.0004 6365.527091303655 1.000293418012309 1.560010965374375 287.9739065262441 4.720613470278098
0.0005 6365.533988856002 1.000293182970885 1.559932572067927 287.929072435987 4.706983407669609
0.0006000000000000001 6365.540936323305 1.000292946442823 1.559854159774825 287.8839138985189 4.693289668482556
0.0007 6365.547933717899 1.00029270843208 1.559775728368806 287.8384308336534 4.679532907621928
0.0008 6365.554981052205 1.000292468942639 1.559697277724106 287.792623160666 4.665713782329932
0.0009000000000000001 6365.562078338722 1.000292227978502 1.559618807715532 287.7464907983061 4.65183295214495
0.001 6365.569225590032 1.000291985543693 1.559540318218591 287.700033664791 4.63789107885497
0.0011 6365.576422818799 1.000291741642255 1.559461809109381 287.653251677806 4.623888826452661
0.0012 6365.583670037767 1.000291496278255 1.559383280264498 287.6061447545161 4.609826861093826
0.0013 6365.59096725976 1.000291249455778 1.559304731561254 287.5587128115602 4.595705851050405
0.0014 6365.598314497684 1.000291001178931 1.559226162877464 287.5109557650511 4.581526466665109
0.0015 6365.605711764522 1.00029075145184 1.559147574091652 287.462873530605 4.567289380314659
0.0016 6365.613159073339 1.000290500278653 1.559068965082854 287.414466023294 4.552995266350099
0.0017 6365.620656437277 1.000290247663537 1.558990335730692 287.3657331577 4.538644801066765
0.0018 6365.628203869556 1.00028999361068 1.558911685915383 287.3166748478842 4.524238662649595
0.0019 6365.635801383477 1.000289738124289 1.558833015517814 287.2672910073996 4.509777531130571
0.002 6365.643448992416 1.000289481208591 1.55875432441933 287.2175815492968 4.495262088344262
0.0021 6365.651146709829 1.000289222867832 1.558675612501975 287.1675463861119 4.480693017878067
0.0022 6365.658894549247 1.00028896310628 1.55859687964833 287.1171854298963 4.466071005034407
0.0023 6365.666692524277 1.000288701928219 1.558518125741538 287.0664985921989 4.451396736778987
0.0024 6365.674540648605 1.000288439337954 1.558439350665408 287.0154857840661 4.436670901694167
0.0025 6365.682438935993 1.000288175339809 1.558360554304243 286.9641469160478 4.421894189933919
0.0026 6365.690387400275 1.000287909938127 1.558281736543006 286.9124818982149 4.407067293182059
0.0027 6365.698386055363 1.000287643137269 1.558202897267174 286.8604906401418 4.392190904600157
0.0028 6365.706434915243 1.000287374941616 1.55812403636285 286.8081730509183 4.377265718783869
0.0029 6365.714533993977 1.000287105355566 1.558045153716727 286.7555290391491 4.362292431715768
0.003 6365.722683305699 1.000286834383535 1.557966249216043 286.7025585129544 4.347271740718091
0.0031 6365.730882864618 1.000286562029961 1.557887322748633 286.6492613799813 4.332204344408744
0.0032 6365.739132685016 1.000286288299295 1.557808374202948 286.5956375473983 4.317090942652197
0.0033 6365.747432781247 1.00028601319601 1.557729403467968 286.5416869218947 4.301932236511966
0.0034 6365.75578316774 1.000285736724593 1.557650410433294 286.4874094096871 4.286728928204712
0.0035 6365.764183858996 1.000285458889553 1.557571394989057 286.432804916525 4.271481721054236
0.0036 6365.772634869585 1.000285179695413 1.557492357026028 286.3778733476969 4.256191319445363
0.0037 6365.781136214151 1.000284899146715 1.557413296435514 286.3226146080182 4.240858428772866
0.0038 6365.789687907408 1.000284617248018 1.557334213109443 286.2670286018491 4.225483755398527
0.0039 6365.798289964142 1.000284334003897 1.55725510694031 286.2111152330771 4.210068006598306
0.004 6365.806942399209 1.000284049418946 1.557175977821158 286.15487440514 4.19461189052091
0.0041 6365.815645227536 1.000283763497773 1.557096825645638 286.098306021015 4.179116116136504
0.004200000000000001 6365.824398464118 1.000283476245006 1.557017650307981 286.0414099832354 4.163581393193491
0.0043 6365.833202124018 1.000283187665286 1.556938451703026 285.9841861938797 4.148008432167135
0.0044 6365.842056222373 1.000282897763273 1.556859229726153 285.9266345545769 4.132397944213031
0.004500000000000001 6365.850960774384 1.000282606543642 1.556779984273304 285.8687549665068 4.116750641118907
0.0046 6365.859915795322 1.000282314011084 1.556700715241094 285.8105473304057 4.101067235258006
0.0047 6365.868921300527 1.000282020170306 1.556621422526598 285.7520115465726 4.085348439542402
0.0048 6365.877977305404 1.00028172502603 1.556542106027605 285.6931475148748 4.069594967376291
0.0049 6365.887083825427 1.000281428582995 1.556462765642367 285.6339551347245 4.053807532601337
0.005 6365.896240876136 1.000281130845955 1.556383401269812 285.5744343051141 4.037986849457861
0.0051 6365.905448473138 1.000280831819678 1.556304012809389 285.5145849246045 4.022133632533304
0.005200000000000001 6365.914706632105 1.000280531508948 1.556224600161147 285.4544068913191 4.006248596712315
0.0053 6365.924015368776 1.000280229918565 1.556145163225774 285.3939001029556 3.990332457131539
0.0054 6365.933374698954 1.000279927053342 1.556065701904398 285.3330644567981 3.974385929134348
0.005500000000000001 6365.942784638509 1.000279622918107 1.55598621609891 285.2718998496929 3.958409728216259
0.0056 6365.952245203373 1.000279317517704 1.55590670571169 285.2104061780786 3.94240456998434
0.0057 6365.961756409542 1.00027901085699 1.555827170645676 285.1485833379742 3.926371170105739
0.0058 6365.97131827308 1.000278702940835 1.555747610804487 285.0864312249786 3.910310244259368
0.0059 6365.98093081011 1.000278393774125 1.555668026092278 285.0239497342831 3.894222508090645
0.006 6365.990594036821 1.00027808336176 1.555588416413731 284.961138760665 3.878108677161658
0.0061 6366.000307969462 1.000277771708652 1.555508781674221 284.8979981984938 3.86196946690442
0.006200000000000001 6366.010072624347 1.000277458819727 1.55542912177966 284.834527941743 3.845805592575633
0.0063 6366.01988801785 1.000277144699926 1.555349436636515 284.770727883972 3.829617769203935
0.0064 6366.029754166409 1.000276829354201 1.555269726151947 284.7065979183443 3.813406711546245
0.006500000000000001 6366.039671086519 1.000276512787518 1.555189990233557 284.6421379376274 3.797173134039613
0.0066 6366.04963879474 1.000276195004857 1.555110228789668 284.5773478341924 3.78091775075311
0.0067 6366.059657307691 1.000275876011209 1.555030441729128 284.5122275000089 3.764641275338304
0.0068 6366.069726642051 1.000275555811578 1.554950628961404 284.4467768266676 3.748344420987194
0.006900000000000001 6366.079846814559 1.000275234410981 1.554870790396509 284.3809957053635 3.732027900379807
0.007 6366.090017842014 1.000274911814446 1.554790925945126 284.3148840269072 3.715692425639276
0.0071 6366.100239741271 1.000274588027015 1.554711035518436 284.2484416817368 3.699338708286916
0.007200000000000001 6366.110512529248 1.000274263053741 1.554631119028264 284.1816685598886 3.682967459187188
0.0073 6366.120836222918 1.000273936899689 1.554551176387051 284.1145645510322 3.666579388508765
0.0074 6366.131210839314 1.000273609569934 1.554471207507784 284.0471295444589 3.650175205673995
0.007500000000000001 6366.141636395525 1.000273281069564 1.554391212304053 283.9793634290876 3.63375561931282
0.0076 6366.152112908697 1.000272951403679 1.554311190690079 283.9112660934705 3.617321337216749
0.0077 6366.162640396034 1.000272620577388 1.55423114258065 283.8428374257759 3.600873066287221
0.007800000000000001 6366.173218874796 1.000272288595814 1.554151067891116 283.7740773138229 3.584411512496895
0.007900000000000001 6366.183848362301 1.000271955464086 1.554070966537476 283.7049856450466 3.567937380833953
0.008 6366.194528875916 1.000271621187349 1.553990838436337 283.635562306545 3.551451375266331
0.0081 6366.20526043307 1.000271285770755 1.553910683504808 283.5658071850438 3.534954198686269
0.008200000000000001 6366.216043051245 1.000270949219467 1.553830501660706 283.495720166908 3.518446552866283
0.0083 6366.226876747977 1.000270611538659 1.553750292822386 283.4253011381478 3.501929138413826
0.008400000000000001 6366.237761540856 1.000270272733515 1.553670056908792 283.3545499844366 3.48540265472879
0.008500000000000001 6366.248697447526 1.000269932809226 1.553589793839517 283.2834665910813 3.468867799950054
0.0086 6366.259684485683 1.000269591770997 1.553509503534712 283.2120508430575 3.452325270917372
0.008700000000000001 6366.27072267308 1.000269249624039 1.553429185915137 283.1403026249803 3.435775763118229
0.008800000000000001 6366.281812027519 1.000268906373574 1.553348840902119 283.0682218211281 3.419219970647208
0.0089 6366.292952566854 1.000268562024833 1.553268468417676 282.9958083154478 3.402658586161306
0.009000000000000001 6366.304144308993 1.000268216583056 1.55318806838431 282.9230619915437 3.386092300831352
0.0091 6366.315387271895 1.000267870053491 1.553107640725191 282.8499827326831 3.369521804297652
0.0092 6366.326681473569 1.000267522441396 1.553027185364092 282.7765704218021 3.352947784625761
0.009300000000000001 6366.338026932076 1.000267173752036 1.552946702225352 282.702824941506 3.336370928261057
0.0094 6366.349423665526 1.000266823990685 1.552866191233936 282.6287461740807 3.319791919986123
0.0095 6366.36087169208 1.000266473162626 1.55278565231544 282.5543340014809 3.30321144287297
0.009600000000000001 6366.372371029948 1.000266121273148 1.552705085395975 282.4795883053365 3.286630178239434
0.0097 6366.38392169739 1.00026576832755 1.552624490402321 282.4045089669638 3.270048805607018
0.0098 6366.395523712716 1.000265414331137 1.552543867261834 282.3290958673482 3.253468002652359
0.009900000000000001 6366.40717709428 1.000265059289223 1.552463215902503 282.2533488871794 3.236888445170614
0.01 6366.418881860489 1.000264703207127 1.552382536252868 282.1772679068221 3.220310807024683
0.0101 6366.430638029794 1.000264346090179 1.552301828242114 282.1008528063393 3.203735760106317
0.0102 6366.442445620696 1.000263987943711 1.552221091800049 282.0241034654749 3.187163974288371
0.0103 6366.454304651742 1.000263628773067 1.552140326856994 281.9470197636773 3.170596117386242
0.0104 6366.466215141524 1.000263268583593 1.552059533343964 281.8696015800932 3.154032855113054
0.0105 6366.478177108684 1.000262907380645 1.551978711192531 281.7918487935561 3.137474851033843
0.0106 6366.490190571905 1.000262545169584 1.55189786033487 281.7137612826158 3.120922766528773
0.0107 6366.50225554992 1.000262181955776 1.551816980703776 281.6353389255204 3.104377260746442
0.0108 6366.514372061502 1.000261817744595 1.551736072232673 281.5565816002344 3.08783899056494
0.0109 6366.526540125475 1.00026145254142 1.551655134855498 281.4774891844148 3.07130861054441
0.011 6366.5387597607 1.000261086351636 1.551574168506898 281.3980615554468 3.054786772892238
0.0111 6366.551030986088 1.000260719180632 1.55149317312208 281.3182985904258 3.038274127417284
0.0112 6366.563353820591 1.000260351033804 1.551412148636793 281.2382001661575 3.021771321488091
0.0113 6366.575728283205 1.000259981916554 1.55133109498749 281.1577661591699 3.005278999993773
0.0114 6366.588154392967 1.000259611834286 1.551250012111164 281.076996445713 2.988797805302648
0.0115 6366.600632168957 1.000259240792411 1.55116889994546 280.9958909017768 2.972328377224729
0.0116 6366.613161630299 1.000258868796344 1.551087758428558 280.9144494030555 2.955871352963635
0.0117 6366.625742796156 1.000258495851506 1.551006587499285 280.8326718249835 2.939427367083192
0.0118 6366.638375685735 1.00025812196332 1.550925387097103 280.7505580427231 2.922997051464646
0.0119 6366.65106031828 1.000257747137214 1.550844157162001 280.6681079311824 2.906581035270095
0.012 6366.663796713078 1.000257371378622 1.550762897634603 280.5853213649915 2.890179944897882
0.0121 6366.676584889457 1.000256994692978 1.55068160845618 280.5021982185266 2.873794403947719
0.0122 6366.689424866783 1.000256617085723 1.550600289568544 280.4187383659095 2.857425033181307
0.0123 6366.70231666446 1.000256238562301 1.550518940914122 280.3349416810078 2.841072450483244
0.0124 6366.715260301935 1.000255859128158 1.550437562435987 280.2508080374231 2.824737270819922
0.0125 6366.72825579869 1.000255478788744 1.550356154077738 280.1663373085147 2.808420106205614
0.0126 6366.741303174248 1.000255097549512 1.550274715783635 280.0815293673876 2.79212156566191
0.0127 6366.754402448167 1.000254715415918 1.550193247498518 279.9963840869162 2.775842255184291
0.0128 6366.767553640044 1.000254332393422 1.550111749167825 279.910901339715 2.759582777698748
0.0129 6366.780756769514 1.000253948487483 1.550030220737619 279.8250809981618 2.743343733028937
0.013 6366.794011856245 1.000253563703566 1.549948662154527 279.7389229344097 2.727125717861265
0.0131 6366.807318919946 1.000253178047136 1.549867073365809 279.6524270203521 2.710929325701394
0.0132 6366.82067798036 1.000252791523662 1.549785454319294 279.5655931276632 2.694755146845527
0.0133 6366.834089057264 1.000252404138614 1.549703804963412 279.4784211277869 2.678603768341948
0.0134 6366.84755217047 1.000252015897462 1.549622125247246 279.3909108919423 2.662475773956203
0.0135 6366.86106733983 1.000251626805681 1.549540415120387 279.3030622911064 2.646371744132241
0.0136 6366.874634585224 1.000251236868744 1.549458674533125 279.214875196043 2.630292255962593
0.0137 6366.888253926571 1.000250846092128 1.549376903436234 279.1263494772915 2.61423788315122
0.0138 6366.901925383819 1.000250454481311 1.549295101781188 279.0374850051784 2.598209195981006
0.0139 6366.915648976953 1.000250062041769 1.549213269519975 278.9482816498056 2.5822067612773
0.014 6366.929424725989 1.000249668778983 1.549131406605257 278.858739281074 2.566231142378166
0.0141 6366.943252650976 1.00024927469843 1.549049512990247 278.7688577686539 2.550282899095434
0.0142 6366.957132771997 1.000248879805592 1.548967588628719 278.6786369820205 2.534362587687697
0.0143 6366.971065109163 1.000248484105949 1.548885633475114 278.5880767904422 2.518470760825188
0.0144 6366.985049682618 1.000248087604981 1.548803647484414 278.4971770629803 2.502607967557123
0.0145 6366.999086512541 1.000247690308169 1.548721630612226 278.4059376684835 2.486774753278388
0.0146 6367.013175619135 1.000247292220993 1.548639582814729 278.314358475623 2.470971659703725
0.0147 6367.027317022637 1.000246893348933 1.548557504048679 278.2224393528571 2.45519922482995
0.0148 6367.041510743315 1.00024649369747 1.548475394271434 278.1301801684552 2.439457982908787
0.0149 6367.055756801463 1.000246093272081 1.548393253440988 278.0375807904915 2.423748464414937
0.015 6367.070055217407 1.000245692078247 1.54831108151585 277.9446410868567 2.408071196017538
0.0151 6367.084406011501 1.000245290121443 1.548228878455155 277.8513609252467 2.392426700547968
0.0152 6367.098809204127 1.000244887407147 1.548146644218639 277.7577401731741 2.376815496972029
0.0153 6367.113264815696 1.000244483940834 1.548064378766579 277.663778697974 2.361238100361469
0.0154 6367.127772866646 1.000244079727978 1.547982082059885 277.5694763667983 2.345695021863898
0.0155 6367.142333377443 1.00024367477405 1.547899754060021 277.4748330466217 2.330186768675068
0.0156 6367.156946368577 1.000243269084523 1.547817394729061 277.3798486042473 2.314713844011496
0.0157 6367.17161186057 1.000242862664865 1.547735004029618 277.2845229062949 2.29927674708059
0.0158 6367.186329873966 1.000242455520542 1.547652581924936 277.1888558192189 2.283875973055972
0.0159 6367.201100429336 1.00024204765702 1.547570128378815 277.0928472093141 2.268512013051216
0.016 6367.215923547277 1.000241639079762 1.547487643355635 276.9964969426977 2.253185354090201
0.0161 6367.23079924841 1.000241229794227 1.547405126820371 276.8998048853335 2.237896479084485
0.0162 6367.245727553382 1.000240819805875 1.547322578738539 276.8027709030138 2.222645866804471
0.0163 6367.260708482864 1.000240409120158 1.54723999907628 276.7053948613828 2.207433991857523
0.0164 6367.275742057551 1.000239997742532 1.547157387800276 276.6076766259197 2.19226132465995
0.0165 6367.29082829816 1.000239585678443 1.547074744877794 276.5096160619613 2.17712833141588
0.0166 6367.305967225435 1.000239172933339 1.546992070276682 276.4112130346733 2.162035474088258
0.0167 6367.32115886014 1.000238759512664 1.546909363965332 276.3124674090913 2.146983210381236
0.0168 6367.336403223062 1.000238345421855 1.546826625912764 276.2133790500969 2.131971993712904
0.0169 6367.351700335011 1.000237930666349 1.546743856088511 276.1139478224303 2.117002273193919
0.017 6367.367050216818 1.00023751525158 1.5466610544627 276.0141735906835 2.102074493603831
0.0171 6367.382452889337 1.000237099182974 1.546578221006021 275.9140562193069 2.087189095369634
0.0172 6367.397908373443 1.000236682465958 1.546495355689721 275.8135955726206 2.072346514545577
0.0173 6367.413416690028 1.000236265105952 1.546412458485644 275.7127915148147 2.05754718279161
0.0174 6367.42897786001 1.000235847108372 1.546329529366156 275.6116439099318 2.042791527349687
0.0175 6367.444591904324 1.000235428478629 1.546246568304223 275.5101526218958 2.028079971027438
0.0176 6367.460258843924 1.000235009222133 1.546163575273337 275.408317514495 2.013412932175318
0.0177 6367.475978699785 1.000234589344285 1.546080550247601 275.3061384513993 1.998790824669363
0.0178 6367.491751492901 1.000234168850484 1.545997493201576 275.2036152961426 1.984214057889254
0.0179 6367.507577244285 1.000233747746122 1.545914404110503 275.1007479121466 1.969683036702756
0.018 6367.523455974967 1.000233326036589 1.545831282950103 274.9975361627147 1.955198161446337
0.0181 6367.539387705995 1.000232903727267 1.545748129696679 274.893979911032 1.940759827907081
0.0182 6367.555372458437 1.000232480823534 1.545664944327072 274.7900790201596 1.926368427304247
0.0183 6367.571410253374 1.000232057330763 1.545581726818656 274.6858333530698 1.912024346276977
0.0184 6367.587501111907 1.000231633254321 1.54549847714941 274.5812427726049 1.897727966861795
0.0185 6367.603645055155 1.000231208599567 1.545415195297812 274.4763071414949 1.883479666478791
0.0186 6367.61984210425 1.00023078337186 1.54533188124288 274.3710263223751 1.869279817918159
0.0187 6367.636092280341 1.000230357576546 1.545248534964251 274.2654001777863 1.855128789324738
0.0188 6367.652395604592 1.000229931218971 1.545165156442003 274.1594285701511 1.84102694417986
0.0189 6367.668752098184 1.000229504304471 1.54508174565684 274.0531113618034 1.826974641290813
0.019 6367.685161782311 1.000229076838377 1.544998302589962 273.9464484149765 1.812972234775184
0.0191 6367.701624678182 1.000228648826014 1.544914827223104 273.8394395918152 1.799020074048802
0.0192 6367.718140807022 1.0002282202727 1.54483131953856 273.7320847543577 1.785118503810274
0.0193 6367.734710190066 1.000227791183747 1.544747779519151 273.6243837645715 1.771267864032892
0.0194 6367.751332848567 1.000227361564459 1.544664207148208 273.5163364843173 1.757468489947801
0.0195 6367.768008803788 1.000226931420133 1.544580602409649 273.4079427753794 1.743720712036033
0.0196 6367.784738077005 1.000226500756061 1.544496965287854 273.299202499465 1.730024856017153
0.0197 6367.80152068951 1.000226069577526 1.544413295767779 273.1901155181866 1.716381242836163
0.0198 6367.818356662602 1.000225637889806 1.54432959383486 273.0806816930861 1.702790188656091
0.0199 6367.835246017596 1.000225205698168 1.544245859475121 272.9709008856283 1.689252004847298
0.02 6367.852188775815 1.000224773007874 1.544162092675072 272.8607729572012 1.675766997978017
0.0201 6367.869184958597 1.000224339824179 1.544078293421727 272.7502977691219 1.662335469806074
0.0202 6367.886234587287 1.000223906152329 1.543994461702639 272.6394751826364 1.648957717270352
0.0203 6367.903337683243 1.000223471997563 1.543910597505873 272.52830505892 1.635634032482725
