#theta R n z T P_w
0 6365.5 1.00034495290744 1.560324351282931 288.15 16.02862465938895
0.0001 6365.506698014227 1.000344597428478 1.560258016696481 288.1064629075221 15.98374350154259
0.0002 6365.513438265576 1.000344240183074 1.560191638029893 288.0626512737557 15.93869079139793
0.0003 6365.520220782304 1.000343881177983 1.560125215060075 288.0185649150238 15.89346820517047
0.0004 6365.527045592811 1.000343520419984 1.5600587475652 287.9742036467272 15.84807742466973
0.0005 6365.533912725637 1.000343157915892 1.559992235324462 287.9295672833563 15.8025201372279
0.0006000000000000001 6365.540822209468 1.00034279367255 1.559925678118193 287.8846556384555 15.75679803557979
0.0007 6365.547774073129 1.000342427696829 1.559859075727937 287.8394685246589 15.71091281781499
0.0008 6365.554768345586 1.000342059995635 1.559792427936372 287.7940057536902 15.66486618729318
0.0009000000000000001 6365.561805055944 1.000341690575898 1.559725734527222 287.7482671363626 15.61865985255905
0.001 6365.568884233449 1.000341319444583 1.5596589952854 287.7022524825792 15.57229552725692
0.0011 6365.576005907485 1.00034094660868 1.559592209997092 287.65596160135 15.52577493006274
0.0012 6365.583170107571 1.000340572075211 1.559525378449444 287.6093943007867 15.47909978459184
0.0013 6365.590376863367 1.000340195851224 1.55945850043085 287.5625503881141 15.43227181932405
0.0014 6365.597626204666 1.0003398179438 1.559391575730795 287.5154296696704 15.38529276751657
0.0015 6365.604918161399 1.000339438360044 1.559324604140039 287.4680319509069 15.33816436711649
0.0016 6365.61225276363 1.000339057107093 1.559257585450389 287.420357036406 15.29088836069051
0.0017 6365.619630041557 1.00033867419211 1.559190519454841 287.3724047298809 15.24346649533649
0.0018 6365.627050025512 1.000338289622287 1.559123405947577 287.3241748341701 15.19590052258889
0.0019 6365.63451274596 1.000337903404843 1.559056244723872 287.2756671512606 15.14819219835301
0.002 6365.642018233498 1.000337515547025 1.558989035580245 287.2268814822645 15.10034328279213
0.0021 6365.649566518851 1.000337126056107 1.558921778314384 287.1778176274664 15.05235554028407
0.0022 6365.65715763288 1.000336734939392 1.558854472725088 287.1284753862818 15.00423073929021
0.0023 6365.664791606569 1.000336342204207 1.558787118612361 287.0788545572985 14.95597065230535
0.0024 6365.672468471038 1.000335947857907 1.558719715777397 287.0289549382532 14.90757705574348
0.0025 6365.680188257528 1.000335551907874 1.558652264022554 286.9787763260664 14.85905172988084
0.0026 6365.687950997413 1.000335154361517 1.558584763151368 286.9283185168136 14.81039645873535
0.0027 6365.69575672219 1.000334755226268 1.558517212968582 286.8775813057663 14.76161303001443
0.0028 6365.703605463485 1.000334354509588 1.55844961328009 286.8265644873503 14.71270323498254
0.0029 6365.711497253045 1.000333952218962 1.558381963893028 286.7752678552055 14.66366886842509
0.003 6365.719432122745 1.000333548361902 1.558314264615635 286.7236912021557 14.61451172852664
0.0031 6365.727410104584 1.000333142945943 1.558246515257454 286.6718343202032 14.56523361677177
0.0032 6365.735431230681 1.000332735978645 1.558178715629175 286.6196970005757 14.51583633789606
0.0033 6365.743495533277 1.000332327467596 1.558110865542668 286.567279033697 14.4663216997636
0.0034 6365.751603044739 1.000331917420405 1.558042964811017 286.5145802091987 14.4166915132835
0.0035 6365.759753797549 1.000331505844708 1.557975013248517 286.4616003159321 14.36694759232607
0.0036 6365.767947824313 1.000331092748161 1.557907010670702 286.408339141968 14.31709175362739
0.0037 6365.776185157752 1.000330678138448 1.557838956894305 286.3547964746089 14.26712581670467
0.0038 6365.784465830712 1.000330262023275 1.557770851737204 286.3009721003708 14.21705160374372
0.0039 6365.792789876149 1.000329844410372 1.557702695018625 286.246865805031 14.16687093954658
0.004 6365.80115732714 1.00032942530749 1.55763448655888 286.1924773735922 14.11658565140189
0.0041 6365.809568216876 1.000329004722405 1.557566226179588 286.1378065903062 14.0661975690098
0.004200000000000001 6365.818022578666 1.000328582662915 1.557497913703576 286.0828532386685 14.0157085243793
0.0043 6365.826520445931 1.00032815913684 1.557429548954918 286.0276171014469 13.96512035175777
0.0044 6365.835061852206 1.000327734152024 1.557361131758846 285.972097960659 13.91443488751129
0.004500000000000001 6365.84364683114 1.000327307716329 1.557292661941916 285.9162955975888 13.86365397004281
0.0046 6365.852275416493 1.000326879837643 1.557224139331884 285.8602097927936 13.81277943969897
0.0047 6365.860947642137 1.000326450523872 1.557155563757737 285.8038403261093 13.7618131386767
0.0048 6365.869663542055 1.000326019782946 1.557086935049688 285.7471869766445 13.71075691091886
0.0049 6365.878423150337 1.000325587622814 1.557018253039288 285.6902495228104 13.65961260204156
0.005 6365.887226501186 1.000325154051446 1.556949517559207 285.6330277422911 13.60838205920793
0.0051 6365.896073628911 1.000324719076833 1.556880728443449 285.575521412079 13.55706713106019
0.005200000000000001 6365.904964567929 1.000324282706985 1.556811885527285 285.5177303084628 13.50566966760884
0.0053 6365.913899352763 1.000323844949933 1.556742988647188 285.4596542070398 13.45419152014292
0.0054 6365.922878018042 1.000323405813727 1.556674037640896 285.4012928827273 13.40263454113977
0.005500000000000001 6365.9319005985 1.000322965306437 1.556605032347515 285.3426461097509 13.35100058415373
0.0056 6365.940967128976 1.000322523436151 1.556535972607201 285.2837136616566 13.2992915037255
0.0057 6365.950077644411 1.000322080210978 1.556466858261609 285.224495311328 13.24750915529639
0.0058 6365.959232179851 1.000321635639043 1.556397689153526 285.164990830969 13.19565539509119
0.0059 6365.96843077044 1.00032118972849 1.556328465127071 285.1051999921391 13.14373208004733
0.006 6365.977673451427 1.000320742487483 1.556259186027606 285.0451225657238 13.09174106768715
0.0061 6365.986960258158 1.0003202939242 1.556189851701822 284.9847583219702 13.03968421604651
0.006200000000000001 6365.996291226082 1.000319844046841 1.556120461997585 284.9241070304691 12.98756338355694
0.0063 6366.005666390742 1.00031939286362 1.556051016764186 284.8631684601791 12.93538042896348
0.0064 6366.015085787783 1.00031894038277 1.555981515852077 284.8019423794079 12.88313721120664
0.006500000000000001 6366.024549452944 1.000318486612538 1.555911959113131 284.7404285558608 12.83083558935982
0.0066 6366.034057422064 1.00031803156119 1.555842346400377 284.6786267565866 12.77847742248071
0.0067 6366.04360973107 1.000317575237007 1.555772677568242 284.6165367480429 12.7260645695633
0.0068 6366.053206415992 1.000317117648286 1.555702952472383 284.554158296049 12.67359888939422
0.006900000000000001 6366.062847512949 1.00031665880334 1.555633170969819 284.4914911658328 12.62108224048902
0.007 6366.072533058154 1.000316198710496 1.555563332918798 284.4285351220018 12.56851648096347
0.0071 6366.08226308791 1.000315737378099 1.55549343817892 284.3652899285838 12.51590346846422
0.007200000000000001 6366.092037638615 1.000315274814504 1.555423486611128 284.3017553490039 12.46324506004488
0.0073 6366.101856746754 1.000314811028085 1.555353478077615 284.2379311460958 12.41054311207165
0.0074 6366.111720448904 1.000314346027228 1.555283412441897 284.1738170821258 12.35779948013845
0.007500000000000001 6366.121628781729 1.000313879820332 1.555213289568794 284.109412918763 12.30501601893806
0.0076 6366.131581781981 1.000313412415813 1.555143109324489 284.0447184171211 12.25219458219151
0.0077 6366.141579486502 1.000312943822095 1.555072871576492 283.97973333774 12.19933702252878
0.007800000000000001 6366.151621932215 1.00031247404762 1.555002576193548 283.914457440604 12.1464451913984
0.007900000000000001 6366.161709156134 1.000312003100841 1.55493222304578 283.84889048513 12.09352093895301
0.008 6366.171841195353 1.000311530990222 1.554861812004637 283.7830322302028 12.04056611397297
0.0081 6366.182018087054 1.000311057724241 1.554791342942945 283.7168824341514 11.98758256374215
0.008200000000000001 6366.192239868496 1.000310583311387 1.554720815734765 283.6504408547729 11.93457213396177
0.0083 6366.202506577028 1.000310107760159 1.55465023025558 283.5837072493204 11.88153666863572
0.008400000000000001 6366.212818250071 1.000309631079072 1.554579586382118 283.5166813745385 11.82847800999346
0.008500000000000001 6366.223174925134 1.000309153276646 1.554508883992547 283.4493629866282 11.77539799835649
0.0086 6366.233576639803 1.000308674361415 1.554438122966291 283.3817518412819 11.72229847206113
0.008700000000000001 6366.24402343174 1.000308194341923 1.554367303184158 283.3138476936896 11.66918126735758
0.008800000000000001 6366.254515338689 1.000307713226724 1.55429642452828 283.2456502985209 11.61604821829055
0.0089 6366.265052398469 1.000307231024381 1.554225486882148 283.177159409949 11.56290115661238
0.009000000000000001 6366.275634648976 1.000306747743467 1.554154490130609 283.1083747816564 11.50974191168201
0.0091 6366.286262128178 1.000306263392564 1.554083434159807 283.0392961668407 11.45657231036401
0.0092 6366.296934874122 1.000305777980262 1.554012318857312 282.969923318209 11.40339417691853
0.009300000000000001 6366.307652924926 1.000305291515161 1.553941144111996 282.9002559879835 11.3502093329004
0.0094 6366.31841631878 1.000304804005867 1.553869909814132 282.8302939279314 11.29701959707619
0.0095 6366.329225093948 1.000304315460997 1.553798615855278 282.7600368893349 11.24382678529625
0.009600000000000001 6366.340079288766 1.000303825889172 1.553727262128393 282.689484623021 11.19063271041176
0.0097 6366.350978941635 1.000303335299024 1.553655848527826 282.6186368793736 11.13743918217815
0.0098 6366.36192409103 1.000302843699188 1.553584374949224 282.5474934083035 11.08424800712755
0.009900000000000001 6366.372914775493 1.000302351098308 1.553512841289644 282.4760539592957 11.03106098849901
0.01 6366.383951033634 1.000301857505035 1.553441247447465 282.4043182813801 10.97787992611117
0.0101 6366.395032904127 1.000301362928023 1.553369593322511 282.332286123173 10.92470661628785
0.0102 6366.406160425717 1.000300867375934 1.553297878815906 282.2599572328412 10.87154285172668
0.0103 6366.417333637208 1.000300370857436 1.553226103830127 282.1873313581494 10.8183904214291
0.0104 6366.428552577472 1.000299873381198 1.553154268269104 282.114408246431 10.76525111057357
0.0105 6366.439817285444 1.000299374955899 1.553082372038042 282.0411876446113 10.71212670042832
0.0106 6366.451127800121 1.000298875590219 1.5530104150436 281.9676692992138 10.65901896825082
0.0107 6366.462484160559 1.000298375292843 1.552938397193772 281.8938529563655 10.60592968718752
0.0108 6366.473886405878 1.000297874072459 1.552866318397927 281.819738361792 10.55286062616519
0.0109 6366.485334575258 1.00029737193776 1.552794178566812 281.7453252608224 10.49981354979098
0.011 6366.496828707934 1.00029686889744 1.552721977612578 281.6706133984311 10.4467902182778
0.0111 6366.508368843202 1.000296364960197 1.552649715448752 281.5956025191848 10.3937923873024
0.0112 6366.519955020416 1.000295860134731 1.552577391990181 281.5202923672954 10.34082180793946
0.0113 6366.531587278983 1.000295354429745 1.552505007153174 281.4446826866082 10.28788022654947
0.0114 6366.543265658369 1.000294847853944 1.552432560855347 281.3687732206021 10.23496938467532
0.0115 6366.55499019809 1.000294340416031 1.552360053015795 281.292563712413 10.18209101895559
0.0116 6366.566760937722 1.000293832124715 1.552287483554883 281.2160539048044 10.12924686100095
0.0117 6366.578577916888 1.000293322988702 1.552214852394449 281.1392435402266 10.0764386373323
0.0118 6366.590441175265 1.000292813016701 1.552142159457695 281.0621323607751 10.02366806924948
0.0119 6366.602350752582 1.000292302217419 1.552069404669186 280.9847201082142 9.970936872745257
0.012 6366.614306688617 1.000291790599564 1.551996587954889 280.9070065239893 9.918246758411168
0.0121 6366.626309023198 1.000291278171844 1.551923709242153 280.8289913492143 9.865599431327619
0.0122 6366.6383577962 1.000290764942964 1.551850768459723 280.7506743247021 9.81299659098223
0.0123 6366.650453047546 1.000290250921631 1.551777765537753 280.6720551909519 9.760439931160416
0.0124 6366.662594817208 1.000289736116547 1.55170470040772 280.5931336881498 9.707931139844357
0.0125 6366.6747831452 1.000289220536416 1.551631573002557 280.513909556198 9.655471899131918
0.0126 6366.687018071584 1.000288704189934 1.551558383256596 280.4343825347031 9.603063885128144
0.0127 6366.699299636465 1.000288187085801 1.551485131105466 280.3545523629763 9.550708767845151
0.0128 6366.71162787999 1.00028766923271 1.551411816486284 280.2744187800625 9.498408211121607
0.0129 6366.72400284235 1.000287150639352 1.551338439337545 280.1939815247232 9.446163872511482
0.013 6366.736424563775 1.000286631314414 1.551264999599064 280.1132403354594 9.393977403200189
0.0131 6366.748893084538 1.00028611126658 1.55119149721214 280.0321949505004 9.341850447897976
0.0132 6366.761408444951 1.00028559050453 1.551117932119388 279.9508451078212 9.289784644752842
0.0133 6366.773970685364 1.000285069036937 1.551044304264867 279.8691905451368 9.237781625248545
0.0134 6366.786579846164 1.000284546872472 1.550970613593974 279.7872309999315 9.1858430141256
0.0135 6366.799235967778 1.000284024019799 1.550896860053574 279.7049662094413 9.133970429272456
0.0136 6366.811939090666 1.000283500487577 1.550823043591844 279.6223959106718 9.082165481639645
0.0137 6366.824689255325 1.000282976284459 1.550749164158401 279.5395198403861 9.030429775135731
0.0138 6366.837486502286 1.000282451419093 1.550675221704225 279.4563377351404 8.978764906553225
0.0139 6366.850330872114 1.000281925900118 1.550601216181718 279.3728493312605 8.927172465457939
0.014 6366.863222405404 1.000281399736167 1.550527147544628 279.2890543648767 8.875654034115529
0.0141 6366.876161142785 1.000280872935868 1.550453015748152 279.2049525718952 8.824211187378234
0.0142 6366.889147124916 1.000280345507837 1.550378820748829 279.1205436880444 8.772845492619345
0.0143 6366.902180392487 1.000279817460686 1.550304562504591 279.0358274488343 8.721558509613789
0.0144 6366.915260986217 1.000279288803018 1.550230240974773 278.9508035895914 8.670351790466212
0.0145 6366.928388946852 1.000278759543425 1.550155856120086 278.8654718454649 8.61922687952128
0.0146 6366.941564315164 1.000278229690492 1.550081407902626 278.7798319514326 8.568185313274462
0.0147 6366.954787131956 1.000277699252795 1.550006896285914 278.6938836422891 8.517228620272787
0.0148 6366.968057438052 1.0002771682389 1.549932321234781 278.6076266526633 8.4663583210338
0.0149 6366.981375274303 1.000276636657362 1.549857682715512 278.5210607170305 8.415575927961342
0.015 6366.994740681584 1.000276104516728 1.549782980695736 278.4341855697065 8.36488294525137
0.0151 6367.00815370079 1.000275571825531 1.5497082151445 278.347000944865 8.31428086881224
0.0152 6367.021614372842 1.000275038592296 1.549633386032182 278.2595065765262 8.263771186168221
0.0153 6367.035122738681 1.000274504825535 1.549558493330585 278.1717021985741 8.213355376380841
0.0154 6367.048678839266 1.00027397053375 1.549483537012877 278.0835875447686 8.163034909967159
0.0155 6367.062282715578 1.00027343572543 1.549408517053573 277.9951623487399 8.112811248808438
0.0156 6367.075934408616 1.000272900409051 1.549333433428618 277.9064263439935 8.062685846066248
0.0157 6367.089633959397 1.000272364593076 1.549258286115308 277.8173792639171 8.01266014609917
0.0158 6367.103381408953 1.000271828285959 1.549183075092289 277.7280208418036 7.962735584389906
0.0159 6367.117176798334 1.000271291496135 1.549107800339615 277.6383508108278 7.912913587446494
0.016 6367.131020168605 1.000270754232029 1.549032461838704 277.5483689040697 7.8631955727307
0.0161 6367.144911560842 1.000270216502052 1.548957059572333 277.4580748545267 7.813582948580217
0.0162 6367.158851016139 1.000269678314598 1.548881593524654 277.3674683950957 7.764077114115262
0.0163 6367.172838575601 1.00026913967805 1.548806063681177 277.2765492585967 7.714679459168665
0.0164 6367.186874280342 1.000268600600773 1.548730470028777 277.1853171777788 7.665391364206705
0.0165 6367.20095817149 1.000268061091119 1.548654812555697 277.0937718853141 7.616214200244264
0.0166 6367.215090290182 1.000267521157421 1.548579091251554 277.0019131138159 7.567149328773433
0.0167 6367.229270677562 1.000266980808001 1.548503306107309 276.909740595844 7.518198101686326
0.0168 6367.243499374786 1.00026644005116 1.548427457115258 276.8172540638933 7.469361861189213
0.0169 6367.257776423013 1.000265898895186 1.548351544269085 276.7244532504172 7.420641939736236
0.017 6367.272101863412 1.000265357348347 1.548275567563826 276.631337887822 7.372039659948109
0.0171 6367.286475737157 1.000264815418895 1.548199526995841 276.5379077084784 7.323556334540898
0.0172 6367.300898085426 1.000264273115066 1.548123422562861 276.4441624447335 7.27519326625544
0.0173 6367.315368949399 1.000263730445075 1.548047254263957 276.3501018289047 7.226951747778262
0.0174 6367.329888370263 1.000263187417121 1.54797102209955 276.2557255932919 7.178833061672491
0.0175 6367.344456389204 1.000262644039385 1.547894726071369 276.1610334701712 7.130838480300419
0.0176 6367.359073047412 1.000262100320026 1.547818366182536 276.0660251918247 7.082969265764854
0.0177 6367.373738386074 1.000261556267186 1.54774194243747 275.9707004905166 7.035226669824231
0.0178 6367.388452446382 1.000261011888988 1.547665454841918 275.8750590985172 6.987611933832496
0.0179 6367.403215269521 1.000260467193534 1.547588903402995 275.7791007481145 6.940126288673612
0.018 6367.418026896677 1.000259922188906 1.547512288129102 275.6828251716023 6.892770954685153
0.0181 6367.432887369032 1.000259376883166 1.547435609030023 275.5862321012922 6.845547141594523
0.0182 6367.447796727766 1.000258831284355 1.547358866116784 275.4893212695196 6.798456048453021
0.0183 6367.462755014055 1.000258285400492 1.547282059401776 275.3920924086432 6.751498863567861
0.0184 6367.477762269066 1.000257739239576 1.547205188898725 275.2945452510693 6.704676764446432
0.0185 6367.492818533962 1.000257192809583 1.54712825462264 275.1966795292454 6.657990917727025
0.0186 6367.5079238499 1.000256646118468 1.547051256589853 275.0984949756488 6.611442479107795
0.0187 6367.523078258027 1.000256099174164 1.546974194817988 274.9999913228215 6.565032593299115
0.0188 6367.538281799484 1.000255551984579 1.546897069325988 274.9011683033531 6.518762393951408
0.0189 6367.553534515399 1.000255004557602 1.546819880134084 274.8020256499038 6.472633003603474
0.019 6367.568836446893 1.000254456901094 1.54674262726384 274.7025630951933 6.426645533615008
0.0191 6367.584187635074 1.000253909022896 1.546665310738047 274.6027803720179 6.380801084113858
0.0192 6367.599588121038 1.000253360930824 1.546587930580865 274.5026772132509 6.335100743935891
0.0193 6367.615037945869 1.00025281263267 1.546510486817668 274.402253351854 6.289545590571198
0.0194 6367.630537150636 1.000252264136201 1.546432979475155 274.3015085208662 6.244136690100479
0.0195 6367.646085776396 1.000251715449159 1.546355408581296 274.2004424534265 6.198875097148496
0.0196 6367.661683864188 1.000251166579263 1.546277774165352 274.0990548827748 6.15376185482762
0.0197 6367.677331455038 1.000250617534204 1.546200076257819 273.9973455422513 6.108797994682438
0.0198 6367.693028589953 1.00025006832165 1.546122314890487 273.8953141653086 6.063984536640556
0.0199 6367.708775309921 1.00024951894924 1.5460444900964 273.7929604855116 6.019322488959109
0.02 6367.724571655916 1.00024896942459 1.545966601909881 273.6902842365433 5.974812848174874
0.0201 6367.74041766889 1.000248419755287 1.54588865036647 273.5872851522171 5.930456599057887
0.0202 6367.756313389774 1.000247869948893 1.545810635503006 273.4839629664701 5.886254714558343
0.0203 6367.77225885948 1.000247320012942 1.545732557357521 273.3803174133817 5.842208155764711
