#theta R n z T P_w
0 6365.5 1.000311213124589 1.560324351282931 288.15 8.525864180526037
0.0001 6365.506698014227 1.000310941927804 1.560250025951471 288.1064629075221 8.501991224224783
0.0002 6365.513443352667 1.000310669108762 1.56017567362951 288.0626182076625 8.478008952548457
0.0003 6365.520236032728 1.000310394672574 1.560101294149936 288.0184657872709 8.453918430716893
0.0004 6365.527076071924 1.000310118624373 1.560026887346597 287.9740055324936 8.429720727864451
0.0005 6365.533963487881 1.000309840969319 1.55995245305411 287.9292373287734 8.405416916974032
0.0006000000000000001 6365.540898298329 1.000309561712599 1.559877991108012 287.8841610608614 8.381008074817224
0.0007 6365.547880521103 1.000309280859424 1.559803501344644 287.8387766128288 8.356495281894116
0.0008 6365.554910174148 1.00030899841503 1.559728983601133 287.7930838680376 8.33187962235049
0.0009000000000000001 6365.561987275511 1.000308714384681 1.559654437715565 287.7470827091755 8.307162183929929
0.001 6365.569111843346 1.000308428773663 1.559579863526724 287.7007730182507 8.282344057903241
0.0011 6365.57628389591 1.000308141587287 1.559505260874392 287.6541546765856 8.257426338997693
0.0012 6365.583503451564 1.000307852830891 1.559430629599084 287.6072275648343 8.232410125338669
0.0013 6365.590770528773 1.000307562509837 1.559355969542154 287.5599915629772 8.207296518378387
0.0014 6365.598085146104 1.000307270629509 1.559281280545839 287.5124465503208 8.182086622827587
0.0015 6365.605447322228 1.000306977195317 1.559206562453178 287.4645924055211 8.15678154659949
0.0016 6365.612857075914 1.000306682212695 1.559131815108076 287.4164290065604 8.131382400728423
0.0017 6365.620314426035 1.000306385687102 1.559057038355222 287.3679562307706 8.105890299313305
0.0018 6365.627819391565 1.000306087624016 1.558982232040258 287.3191739548273 8.080306359445213
0.0019 6365.635371991577 1.000305788028944 1.558907396009509 287.2700820547501 8.054631701137922
0.002 6365.642972245243 1.000305486907412 1.558832530110288 287.22068040592 8.02886744726746
0.0021 6365.650620171836 1.000305184264973 1.558757634190579 287.1709688830678 8.003014723495991
0.0022 6365.658315790724 1.000304880107198 1.55868270809941 287.1209473602916 7.977074658210896
0.0023 6365.666059121379 1.000304574439686 1.558607751686434 287.0706157110393 7.951048382445238
0.0024 6365.673850183363 1.000304267268054 1.558532764802322 287.0199738081382 7.924937029822522
0.0025 6365.681688996341 1.000303958597943 1.558457747298474 286.9690215237828 7.898741736479802
0.0026 6365.689575580072 1.000303648435017 1.558382699027196 286.9177587295352 7.87246364099676
0.0027 6365.69750995441 1.000303336784961 1.558307619841573 286.8661852963368 7.846103884330679
0.0028 6365.705492139306 1.000303023653481 1.558232509595578 286.814301094514 7.819663609748125
0.0029 6365.713522154805 1.000302709046307 1.55815736814401 286.7621059937668 7.79314396274742
0.003 6365.721600021046 1.000302392969186 1.558082195342503 286.7095998631979 7.766546091002035
0.0031 6365.729725758263 1.000302075427892 1.558006991047552 286.6567825712895 7.739871144276709
0.0032 6365.737899386781 1.000301756428213 1.557931755116523 286.6036539859205 7.713120274364464
0.0033 6365.74612092702 1.000301435975964 1.557856487407549 286.550213974367 7.686294635014434
0.0034 6365.754390399491 1.000301114076976 1.557781187779695 286.4964624033081 7.659395381862517
0.0035 6365.762707824798 1.000300790737104 1.557705856092801 286.4423991388138 7.632423672353003
0.0036 6365.771073223633 1.000300465962221 1.557630492207592 286.3880240463867 7.605380665686644
0.0037 6365.77948661678 1.000300139758219 1.557555095985659 286.3333369909323 7.578267522733066
0.0038 6365.787948025114 1.000299812131011 1.557479667289434 286.2783378367589 7.551085405957961
0.0039 6365.7964574696 1.00029948308653 1.557404205982176 286.2230264476015 7.523835479361803
0.004 6365.80501497129 1.000299152630728 1.557328711927968 286.1674026866157 7.496518908403734
0.0041 6365.813620551325 1.000298820769575 1.557253184991838 286.1114664163896 7.469136859934097
0.004200000000000001 6365.822274230934 1.000298487509061 1.557177625039635 286.0552174989319 7.441690502115237
0.0043 6365.830976031433 1.000298152855195 1.557102031938005 285.9986557956839 7.414181004353811
0.0044 6365.839725974226 1.000297816814003 1.557026405554516 285.9417811675311 7.386609537232915
0.004500000000000001 6365.848524080801 1.00029747939153 1.55695074575757 285.8845934747914 7.358977272432614
0.0046 6365.857370372734 1.000297140593839 1.556875052416434 285.8270925772271 7.33128538266187
0.0047 6365.866264871685 1.000296800427011 1.556799325401244 285.7692783340448 7.303535041584644
0.0048 6365.875207599399 1.000296458897145 1.556723564582989 285.7111506039072 7.275727423751589
0.0049 6365.884198577704 1.000296116010357 1.556647769833503 285.6527092449272 7.24786370452312
0.005 6365.893237828511 1.00029577177278 1.556571941025497 285.5939541146798 7.219945060000902
0.0051 6365.902325373817 1.000295426190563 1.556496078032557 285.5348850701902 7.19197266694803
0.005200000000000001 6365.9114612357 1.000295079269875 1.55642018072913 285.4755019679513 7.163947702723175
0.0053 6365.920645436318 1.000294731016897 1.556344248990542 285.4158046639303 7.135871345209001
0.0054 6365.929877997914 1.00029438143783 1.55626828269295 285.355793013562 7.10774477273495
0.005500000000000001 6365.939158942806 1.00029403053889 1.556192281713435 285.2954668717611 7.079569164008348
0.0056 6365.948488293399 1.000293678326308 1.556116245929923 285.2348260929042 7.051345698031616
0.0057 6365.957866072174 1.000293324806333 1.556040175221169 285.1738705308716 7.023075554047058
0.0058 6365.967292301691 1.000292969985225 1.555964069466857 285.1126000390112 6.994759911445738
0.0059 6365.976767004589 1.000292613869265 1.555887928547558 285.0510144701747 6.966399949709341
0.006 6365.986290203584 1.000292256464744 1.555811752344694 284.989113676705 6.937996848330028
0.0061 6365.995861921473 1.000291897777971 1.555735540740536 284.926897510425 6.909551786730409
0.006200000000000001 6366.005482181126 1.000291537815268 1.555659293618271 284.8643658226787 6.881065944207848
0.0063 6366.015151005492 1.000291176582971 1.555583010861969 284.8015184643017 6.852540499846247
0.0064 6366.024868417594 1.000290814087433 1.555506692356555 284.7383552856389 6.823976632449476
0.006500000000000001 6366.034634440531 1.000290450335016 1.55543033798785 284.6748761365506 6.795375520469374
0.0066 6366.044449097477 1.000290085332101 1.555353947642556 284.6110808664001 6.766738341925763
0.0067 6366.054312411678 1.000289719085078 1.555277521208255 284.5469693240901 6.738066274347744
0.0068 6366.064224406458 1.000289351600353 1.555201058573428 284.4825413580205 6.709360494680499
0.006900000000000001 6366.074185105211 1.000288982884344 1.55512455962745 284.4177968161301 6.680622179229255
0.007 6366.084194531402 1.000288612943481 1.555048024260531 284.3527355458849 6.651852503579394
0.0071 6366.094252708571 1.000288241784208 1.554971452363852 284.2873573942896 6.623052642527145
0.007200000000000001 6366.104359660327 1.000287869412981 1.554894843829393 284.2216622078762 6.594223769999886
0.0073 6366.114515410351 1.000287495836266 1.554818198550129 284.1556498327153 6.565367058986947
0.0074 6366.124719982395 1.000287121060545 1.554741516419794 284.0893201144344 6.536483681472971
0.007500000000000001 6366.134973400278 1.000286745092307 1.554664797333158 284.0226728981937 6.507574808353233
0.0076 6366.145275687891 1.000286367938057 1.55458804118576 283.9557080287103 6.478641609369733
0.0077 6366.155626869191 1.000285989604306 1.554511247874149 283.8884253502578 6.449685253036963
0.007800000000000001 6366.166026968205 1.000285610097579 1.554434417295684 283.8208247066663 6.420706906567796
0.007900000000000001 6366.176476009026 1.000285229424413 1.554357549348645 283.7529059413285 6.391707735802008
0.008 6366.186974015815 1.000284847591352 1.554280643932238 283.6846688971999 6.362688905132348
0.0081 6366.197521012798 1.000284464604953 1.554203700946516 283.61611341681 6.333651577435734
0.008200000000000001 6366.208117024268 1.000284080471781 1.554126720292468 283.5472393422568 6.304596913996988
0.0083 6366.218762074583 1.000283695198412 1.554049701871974 283.4780465152129 6.275526074437737
0.008400000000000001 6366.229456188163 1.000283308791432 1.55397264558782 283.4085347769427 6.246440216650334
0.008500000000000001 6366.240199389495 1.000282921257435 1.553895551343709 283.3387039682851 6.217340496716981
0.0086 6366.250991703127 1.000282532603023 1.553818419044215 283.2685539296771 6.188228068846349
0.008700000000000001 6366.261833153672 1.000282142834811 1.553741248594848 283.1980845011298 6.159104085290596
0.008800000000000001 6366.272723765805 1.000281751959417 1.553664039901993 283.1272955222643 6.129969696287088
0.0089 6366.283663564262 1.000281359983472 1.553586792872986 283.0561868322997 6.100826049980578
0.009000000000000001 6366.294652573838 1.000280966913613 1.553509507415999 282.984758270053 6.071674292350508
0.0091 6366.305690819393 1.000280572756485 1.553432183440175 282.9130096739453 6.042515567140887
0.0092 6366.316778325843 1.000280177518741 1.553354820855538 282.8409408820193 6.013351015795084
0.009300000000000001 6366.327915118167 1.000279781207041 1.553277419573029 282.7685517319154 5.984181777373995
0.0094 6366.3391012214 1.000279383828052 1.553199979504485 282.695842060902 5.95500898849595
0.0095 6366.350336660636 1.000278985388449 1.553122500562672 282.6228117058689 5.925833783262402
0.009600000000000001 6366.361621461027 1.000278585894912 1.553044982661238 282.5494605033276 5.896657293186224
0.0097 6366.372955647782 1.00027818535413 1.552967425714761 282.4757882894172 5.867480647122578
0.0098 6366.384339246167 1.000277783772794 1.552889829638768 282.4017948999161 5.838304971202272
0.009900000000000001 6366.395772281502 1.000277381157605 1.552812194349609 282.3274801702363 5.809131388758274
0.01 6366.407254779166 1.000276977515268 1.552734519764646 282.2528439354231 5.779961020254851
0.0101 6366.418786764588 1.000276572852494 1.552656805802086 282.1778860301791 5.750794983226125
0.0102 6366.430368263255 1.000276167175998 1.55257905238108 282.1026062888403 5.721634392196357
0.0103 6366.441999300708 1.000275760492502 1.552501259421637 282.0270045453998 5.692480358618936
0.0104 6366.453679902537 1.000275352808731 1.552423426844792 281.9510806335078 5.663333990806331
0.0105 6366.465410094389 1.000274944131416 1.552345554572389 281.8748343864717 5.634196393860313
0.0106 6366.47718990196 1.00027453446729 1.552267642527262 281.7982656372618 5.605068669604701
0.0107 6366.489019350997 1.000274123823093 1.552189690633095 281.7213742185176 5.575951916518328
0.0108 6366.500898467302 1.000273712205567 1.552111698814526 281.6441599625354 5.546847229661567
0.0109 6366.512827276722 1.000273299621457 1.552033666997107 281.5666227013043 5.517755700620977
0.011 6366.524805805157 1.000272886077513 1.551955595107331 281.4887622664822 5.488678417431865
0.0111 6366.536834078553 1.000272471580487 1.551877483072526 281.4105784894081 5.459616464514543
0.0112 6366.548912122907 1.000272056137135 1.551799330821018 281.3320712011013 5.430570922606424
0.0113 6366.561039964265 1.000271639754213 1.551721138282022 281.2532402322798 5.40154286870095
0.0114 6366.573217628717 1.000271222438482 1.551642905385665 281.1740854133426 5.372533375973691
0.0115 6366.585445142399 1.000270804196705 1.551564632062996 281.0946065744046 5.343543513728328
0.0116 6366.597722531498 1.000270385035644 1.551486318245969 281.0148035452615 5.314574347316906
0.0117 6366.610049822244 1.000269964962067 1.55140796386749 280.9346761554137 5.285626938082121
0.0118 6366.62242704091 1.00026954398274 1.551329568861323 280.8542242340835 5.256702343297579
0.0119 6366.634854213817 1.000269122104432 1.551251133162213 280.7734476101917 5.227801616093462
0.012 6366.647331367326 1.000268699333911 1.55117265670576 280.6923461123814 5.19892580539961
0.0121 6366.659858527844 1.000268275677948 1.551094139428546 280.6109195690118 5.170075955878261
0.0122 6366.672435721821 1.000267851143313 1.551015581268022 280.5291678081643 5.141253107861406
0.0123 6366.685062975746 1.000267425736776 1.550936982162564 280.4470906576483 5.112458297288451
0.0124 6366.697740316153 1.000266999465108 1.550858342051479 280.3646879450074 5.083692555644211
0.0125 6366.710467769613 1.00026657233508 1.550779660874982 280.281959497513 5.054956909893138
0.0126 6366.723245362742 1.00026614435346 1.550700938574189 280.1989051421764 5.026252382420129
0.0127 6366.736073122193 1.000265715527019 1.550622175091149 280.115524705743 4.997579990965519
0.0128 6366.748951074658 1.000265285862523 1.550543370368832 280.0318180147218 4.968940748572677
0.0129 6366.761879246869 1.000264855366741 1.55046452435109 279.9477848953496 4.940335663513605
0.013 6366.774857665594 1.000264424046436 1.550385636982715 279.8634251736388 4.911765739243313
0.0131 6366.787886357641 1.000263991908374 1.550306708209417 279.7787386753356 4.883231974324309
0.0132 6366.800965349853 1.000263558959315 1.550227737977786 279.6937252259557 4.854735362377666
0.0133 6366.81409466911 1.000263125206019 1.550148726235382 279.6083846507844 4.826276892022356
0.0134 6366.827274342327 1.000262690655243 1.550069672930621 279.5227167748761 4.797857546815035
0.0135 6366.840504396456 1.000262255313742 1.549990578012838 279.4367214230373 4.769478305184436
0.0136 6366.853784858481 1.000261819188267 1.549911441432339 279.3503984198732 4.741140140387712
0.0137 6366.867115755422 1.000261382285568 1.54983226314024 279.2637475897585 4.712844020441708
0.0138 6366.880497114332 1.000260944612388 1.549753043088649 279.1767687568434 4.68459090806651
0.0139 6366.893928962296 1.00026050617547 1.549673781230554 279.0894617450771 4.656381760635123
0.014 6366.907411326431 1.000260066981552 1.549594477519835 279.0018263781957 4.628217530112019
0.0141 6366.920944233889 1.000259627037366 1.549515131911302 278.9138624797228 4.600099162996058
0.0142 6366.934527711848 1.000259186349644 1.549435744360653 278.8255698729866 4.572027600269533
0.0143 6366.948161787521 1.00025874492511 1.54935631482453 278.7369483811148 4.544003777340074
0.0144 6366.961846488148 1.000258302770484 1.549276843260417 278.6479978270394 4.516028623986823
0.0145 6366.975581841 1.000257859892481 1.549197329626734 278.5587180334977 4.488103064305214
0.0146 6366.989367873377 1.000257416297812 1.54911777388284 278.4691088230496 4.460228016657777
0.0147 6367.003204612607 1.000256971993182 1.549038175988909 278.379170018054 4.432404393612511
0.0148 6367.017092086045 1.000256526985288 1.548958535906104 278.28890144071 4.404633101901974
0.0149 6367.031030321073 1.000256081280825 1.548878853596426 278.1983029130278 4.376915042360845
0.015 6367.0450193451 1.00025563488648 1.548799129022816 278.1073742568518 4.349251109880466
0.0151 6367.059059185562 1.000255187808934 1.548719362149065 278.0161152938493 4.321642193352986
0.0152 6367.07314986992 1.00025474005486 1.5486395529399 277.924525845522 4.294089175623263
0.0153 6367.087291425659 1.000254291630926 1.548559701360923 277.8326057332177 4.26659293344121
0.0154 6367.101483880288 1.000253842543793 1.548479807378632 277.7403547781249 4.23915433740931
0.0155 6367.115727261342 1.000253392800113 1.548399870960433 277.6477728012782 4.211774251934252
0.0156 6367.130021596376 1.000252942406533 1.548319892074596 277.5548596235584 4.184453535177335
0.0157 6367.14436691297 1.000252491369691 1.548239870690291 277.4616150656929 4.157193039005451
0.0158 6367.158763238725 1.000252039696217 1.548159806777567 277.3680389482846 4.129993608951219
0.0159 6367.173210601265 1.000251587392732 1.548079700307388 277.2741310917771 4.10285608415467
0.016 6367.187709028232 1.000251134465852 1.547999551251559 277.1798913164897 4.075781297326185
0.0161 6367.202258547292 1.00025068092218 1.547919359582823 277.0853194425998 4.048770074694543
0.0162 6367.216859186128 1.000250226768314 1.547839125274724 276.9904152901667 4.021823235967452
0.0163 6367.231510972443 1.000249772010841 1.547758848301789 276.8951786791193 3.99494159428246
0.0164 6367.24621393396 1.000249316656339 1.547678528639325 276.7996094292629 3.968125956163571
0.0165 6367.260968098417 1.000248860711377 1.54759816626356 276.70370736029 3.94137712148005
0.0166 6367.275773493573 1.000248404182515 1.547517761151627 276.607472291775 3.914695883400829
0.0167 6367.290630147204 1.000247947076301 1.547437313281451 276.5109040431743 3.888083028351232
0.0168 6367.305538087099 1.000247489399276 1.547356822631912 276.4140024338552 3.861539335978383
0.0169 6367.320497341067 1.000247031157968 1.547276289182722 276.3167672830672 3.835065579100927
0.017 6367.335507936928 1.000246572358897 1.547195712914421 276.2191984099649 3.808662523674027
0.0171 6367.350569902523 1.000246113008569 1.5471150938085 276.1212956336025 3.78233092874684
0.0172 6367.365683265701 1.000245653113483 1.547034431847232 276.0230587729455 3.756071546425444
0.0173 6367.380848054328 1.000245192680124 1.546953727013794 275.924487646865 3.729885121831581
0.0174 6367.396064296285 1.000244731714967 1.546872979292214 275.8255820741491 3.703772393066802
0.0175 6367.41133201946 1.000244270224475 1.54679218866739 275.7263418735091 3.677734091175594
0.0176 6367.426651251759 1.0002438082151 1.546711355125043 275.6267668635677 3.651770940104524
0.0177 6367.442022021095 1.000243345693282 1.546630478651777 275.5268568628825 3.625883656671312
0.0178 6367.457444355396 1.000242882665448 1.546549559235011 275.4266116899283 3.600072950523733
0.0179 6367.472918282597 1.000242419138013 1.54646859686306 275.326031163121 3.574339524109928
0.018 6367.488443830645 1.00024195511738 1.54638759152506 275.2251151008053 3.548684072640172
0.0181 6367.504021027498 1.000241490609939 1.546306543210962 275.123863321261 3.52310728405391
0.0182 6367.519649901119 1.000241025622068 1.546225451911622 275.0222756427264 3.497609838991866
0.0183 6367.535330479483 1.000240560160131 1.546144317618685 274.9203518833632 3.472192410753914
0.0184 6367.551062790569 1.000240094230478 1.546063140324624 274.8180918613033 3.44685566527844
0.0185 6367.566846862366 1.000239627839446 1.545981920022807 274.7154953946196 3.421600261103085
0.0186 6367.582682722871 1.000239160993361 1.545900656707368 274.6125623013376 3.396426849336567
0.0187 6367.598570400086 1.00023869369853 1.545819350373314 274.5092923994415 3.371336073629667
0.0188 6367.614509922017 1.000238225961252 1.545738001016435 274.4056855068919 3.346328570149712
0.0189 6367.630501316676 1.000237757787806 1.545656608633403 274.301741441608 3.321404967547132
0.019 6367.646544612082 1.00023728918446 1.545575173221665 274.1974600214675 3.296565886927115
0.0191 6367.662639836255 1.000236820157467 1.545493694779486 274.0928410643422 3.271811941830342
0.0192 6367.678787017222 1.000236350713066 1.545412173305969 273.9878843880568 3.247143738196119
0.0193 6367.69498618301 1.000235880857478 1.545330608801049 273.8825898104359 3.222561874347254
0.0194 6367.71123736165 1.000235410596912 1.545249001265389 273.7769571492744 3.198066940957463
0.0195 6367.727540581176 1.00023493993756 1.545167350700566 273.6709862223555 3.173659521030641
0.0196 6367.743895869622 1.0002344688856 1.545085657108874 273.5646768474566 3.149340189878011
0.0197 6367.760303255024 1.000233997447193 1.545003920493459 273.458028842343 3.125109515093288
0.0198 6367.776762765419 1.000233525628484 1.544922140858237 273.3510420247743 3.100968056531285
0.0199 6367.793274428844 1.000233053435604 1.54484031820794 273.243716212516 3.076916366288548
0.02 6367.809838273333 1.000232580874665 1.544758452548091 273.1360512233335 3.05295498868068
0.0201 6367.826454326922 1.000232107951765 1.544676543884989 273.0280468750042 3.029084460224392
0.0202 6367.843122617646 1.000231634672985 1.54459459222571 272.9197029852993 3.005305309613728
0.0203 6367.859843173537 1.000231161044389 1.544512597578152 272.811019372008 2.981618057706194
