#theta R n z T P_w
0 6365.5 1.000334217521988 1.560324351282931 288.15 13.64138268884166
0.0001 6365.506698014227 1.000333888860081 1.560255473587995 288.1064629075221 13.60318595875965
0.0002 6365.513439884578 1.000333558463751 1.560186557258415 288.0626407502458 13.56483402825198
0.0003 6365.52022563585 1.000333226339344 1.560117602086031 288.0185333669764 13.52632841228903
0.0004 6365.527055292978 1.000332892493239 1.560048607863803 287.9741405956441 13.487670631026
0.0005 6365.533928881028 1.000332556931844 1.559979574385618 287.9294622733163 13.44886220973203
0.0006000000000000001 6365.5408464252 1.000332219661595 1.559910501446555 287.8844982362028 13.40990467871372
0.0007 6365.547807950824 1.000331880688958 1.55984138884277 287.8392483196448 13.3707995732229
0.0008 6365.554813483363 1.000331540020427 1.559772236371446 287.7937123581436 13.3315484333999
0.0009000000000000001 6365.56186304841 1.000331197662527 1.559703043830733 287.7478901853318 13.29215280416526
0.001 6365.568956671689 1.000330853621808 1.559633811020064 287.7017816340202 13.25261423517741
0.0011 6365.576094379053 1.000330507904851 1.559564537739758 287.6553865361565 13.21293428071358
0.0012 6365.583276196481 1.000330160518265 1.559495223791315 287.6087047228724 13.17311449962651
0.0013 6365.590502150085 1.000329811468685 1.559425868977259 287.5617360244486 13.13315645522992
0.0014 6365.5977722661 1.000329460762776 1.559356473101211 287.5144802703497 13.09306171524423
0.0015 6365.605086570889 1.000329108407229 1.559287035967893 287.4669372892189 13.05283185170645
0.0016 6365.612445090941 1.000328754408763 1.559217557383023 287.4191069088832 13.01246844089001
0.0017 6365.619847852871 1.000328398774124 1.559148037153484 287.3709889563364 12.97197306320407
0.0018 6365.627294883418 1.000328041510085 1.559078475087205 287.3225832577858 12.93134730314751
0.0019 6365.634786209444 1.000327682623444 1.559008870993223 287.2738896386171 12.89059274919267
0.002 6365.642321857935 1.000327322121029 1.558939224681591 287.2249079234238 12.84971099372352
0.0021 6365.649901856 1.000326960009692 1.558869535963536 287.1756379360012 12.80870363294368
0.0022 6365.657526230869 1.00032659629631 1.55879980465134 287.1260794993526 12.76757226679399
0.0023 6365.665195009894 1.000326230987789 1.558730030558336 287.0762324356891 12.72631849886492
0.0024 6365.672908220547 1.000325864091057 1.558660213499075 287.0260965664473 12.68494393632323
0.0025 6365.680665890418 1.00032549561307 1.558590353289015 286.9756717122835 12.64345018981873
0.0026 6365.688468047219 1.000325125560809 1.558520449744875 286.9249576930737 12.60183887339571
0.0027 6365.69631471878 1.000324753941279 1.558450502684406 286.8739543279311 12.5601116044186
0.0028 6365.704205933046 1.000324380761509 1.558380511926459 286.8226614352005 12.51827000347779
0.0029 6365.712141718082 1.000324006028556 1.558310477290975 286.7710788324702 12.47631569430983
0.003 6365.720122102067 1.000323629749496 1.558240398599054 286.7192063365654 12.43425030370272
0.0031 6365.728147113296 1.000323251931435 1.558170275672865 286.6670437635729 12.39207546142498
0.0032 6365.736216780182 1.000322872581498 1.558100108335684 286.6145909288165 12.34979280011605
0.0033 6365.744331131248 1.000322491706837 1.558029896411895 286.561847646887 12.30740395521952
0.0034 6365.752490195132 1.000322109314624 1.557959639727037 286.5088137316424 12.26491056489203
0.0035 6365.760694000585 1.000321725412058 1.557889338107725 286.4554889961954 12.22231426990253
0.0036 6365.768942576471 1.000321340006358 1.55781899138168 286.4018732529379 12.17961671355974
0.0037 6365.777235951764 1.000320953104767 1.557748599377832 286.3479663135344 12.13681954161552
0.0038 6365.785574155548 1.000320564714551 1.557678161926106 286.29376798894 12.09392440218696
0.0039 6365.793957217018 1.000320174842996 1.557607678857689 286.2392780893828 12.05093294564987
0.004 6365.802385165479 1.000319783497412 1.557537150004776 286.1844964243872 12.00784682456505
0.0041 6365.810858030343 1.000319390685131 1.557466575200758 286.1294228027685 11.9646676935807
0.004200000000000001 6365.819375841133 1.000318996413505 1.557395954280144 286.0740570326383 11.92139720934406
0.0043 6365.827938627473 1.000318600689908 1.557325287078556 286.0183989214282 11.87803703042656
0.0044 6365.836546419098 1.000318203521735 1.557254573432819 285.9624482758608 11.83458881720714
0.004500000000000001 6365.845199245849 1.000317804916402 1.557183813180825 285.9062049019784 11.79105423180161
0.0046 6365.85389713767 1.000317404881345 1.557113006161649 285.8496686051438 11.74743493796857
0.0047 6365.862640124609 1.000317003424021 1.557042152215509 285.7928391900399 11.7037326010152
0.0048 6365.87142823682 1.000316600551906 1.556971251183703 285.7357164606696 11.65994888770292
0.0049 6365.880261504556 1.000316196272498 1.556900302908798 285.6783002203855 11.61608546617536
0.005 6365.889139958175 1.000315790593311 1.556829307234397 285.6205902718606 11.57214400584091
0.0051 6365.898063628135 1.000315383521882 1.556758264005375 285.5625864171233 11.52812617730482
0.005200000000000001 6365.907032544995 1.000314975065764 1.556687173067636 285.504288457534 11.4840336522559
0.0053 6365.916046739414 1.000314565232531 1.556616034268334 285.4456961938089 11.43986810338922
0.0054 6365.925106242151 1.000314154029774 1.556544847455737 285.3868094260196 11.39563120431039
0.005500000000000001 6365.93421108406 1.000313741465104 1.556473612479298 285.3276279536111 11.35132462945321
0.0056 6365.943361296097 1.000313327546148 1.556402329189607 285.2681515753724 11.30695005396148
0.0057 6365.952556909311 1.000312912280551 1.556330997438485 285.2083800894774 11.26250915362403
0.0058 6365.961797954851 1.000312495675978 1.556259617078817 285.1483132934676 11.21800360476515
0.0059 6365.971084463959 1.000312077740108 1.556188187964804 285.0879509842697 11.1734350841614
0.006 6365.980416467972 1.00031165848064 1.556116709951655 285.0272929581837 11.12880526893638
0.0061 6365.98979399832 1.000311237905286 1.556045182895912 284.9663390109184 11.08411583649014
0.006200000000000001 6365.99921708653 1.000310816021777 1.555973606655182 284.9050889375561 11.03936846437637
0.0063 6366.008685764216 1.000310392837861 1.555901981088309 284.8435425325937 10.99456483023575
0.0064 6366.018200063088 1.0003099683613 1.555830306055318 284.7816995899251 10.94970661168595
0.006500000000000001 6366.027760014945 1.000309542599872 1.555758581417381 284.719559902859 10.90479548623738
0.0066 6366.037365651678 1.00030911556137 1.555686807036905 284.6571232640953 10.85983313117882
0.0067 6366.047017005264 1.000308687253604 1.555614982777448 284.5943894657838 10.81482122352277
0.0068 6366.056714107773 1.000308257684396 1.555543108503791 284.5313582994776 10.76976143987385
0.006900000000000001 6366.06645699136 1.000307826861586 1.555471184081869 284.4680295561619 10.72465545635254
0.007 6366.076245688269 1.000307394793024 1.555399209378891 284.4044030262547 10.67950494849752
0.0071 6366.086080230828 1.000306961486578 1.555327184263151 284.3404784996181 10.63431159117636
0.007200000000000001 6366.095960651453 1.000306526950129 1.555255108604247 284.2762557655527 10.58907705848352
0.0073 6366.105886982645 1.000306091191568 1.555182982272891 284.2117346128092 10.5438030236509
0.0074 6366.115859256987 1.000305654218803 1.555110805141082 284.1469148295827 10.49849115894581
0.007500000000000001 6366.125877507148 1.000305216039754 1.555038577081959 284.0817962035361 10.45314313558961
0.0076 6366.135941765879 1.000304776662352 1.554966297969915 284.0163785217886 10.40776062365142
0.0077 6366.14605206601 1.000304336094543 1.554893967680529 283.9506615709332 10.36234529196246
0.007800000000000001 6366.156208440458 1.000303894344282 1.554821586090556 283.8846451370249 10.31689880800986
0.007900000000000001 6366.166410922215 1.000303451419538 1.554749153078045 283.8183290056044 10.27142283785488
0.008 6366.176659544354 1.000303007328292 1.554676668522175 283.751712961698 10.2259190460348
0.0081 6366.186954340029 1.000302562078533 1.554604132303425 283.6847967898119 10.18038909546079
0.008200000000000001 6366.197295342469 1.000302115678263 1.554531544303447 283.6175802739498 10.13483464733195
0.0083 6366.207682584983 1.000301668135496 1.554458904405091 283.5500631976128 10.08925736103719
0.008400000000000001 6366.218116100954 1.000301219458254 1.554386212492472 283.4822453437995 10.04365889405716
0.008500000000000001 6366.228595923843 1.00030076965457 1.554313468450916 283.414126495018 9.99804090187426
0.0086 6366.239122087185 1.000300318732486 1.554240672166977 283.3457064332973 9.952405037882453
0.008700000000000001 6366.249694624589 1.000299866700055 1.554167823528397 283.2769849401701 9.906752953277444
0.008800000000000001 6366.260313569737 1.000299413565338 1.554094922424194 283.2079617967078 9.861086296982384
0.0089 6366.270978956385 1.000298959336405 1.554021968744619 283.138636783497 9.815406715534234
0.009000000000000001 6366.28169081836 1.000298504021334 1.553948962381138 283.0690096806574 9.769715852997752
0.0091 6366.292449189561 1.000298047628213 1.553875903226425 282.9990802678534 9.724015350875439
0.0092 6366.303254103955 1.000297590165136 1.553802791174433 282.9288483242943 9.678306848009804
0.009300000000000001 6366.314105595581 1.000297131640207 1.553729626120328 282.8583136287224 9.632591980478079
0.0094 6366.325003698546 1.000296672061535 1.553656407960492 282.7874759594482 9.586872381517779
0.0095 6366.335948447026 1.000296211437238 1.553583136592582 282.7163350943332 9.541149681417707
0.009600000000000001 6366.346939875261 1.000295749775439 1.553509811915484 282.6448908108013 9.495425507428305
0.0097 6366.357978017561 1.000295287084269 1.553436433829341 282.5731428858506 9.449701483671983
0.0098 6366.3690629083 1.000294823371865 1.553363002235508 282.5010910960481 9.403979231042227
0.009900000000000001 6366.380194581916 1.000294358646369 1.553289517036583 282.4287352175464 9.358260367117888
0.01 6366.391373072913 1.00029389291593 1.55321597813644 282.3560750260671 9.312546506055135
0.0101 6366.402598415857 1.0002934261887 1.553142385440204 282.2831102969293 9.266839258509458
0.0102 6366.413870645376 1.000292958472839 1.553068738854166 282.2098408050564 9.2211402315427
0.0103 6366.425189796161 1.00029248977651 1.552995038285973 282.1362663249519 9.175451028511892
0.0104 6366.436555902965 1.00029202010788 1.552921283644454 282.0623866307291 9.129773248991546
0.0105 6366.447969000597 1.000291549475121 1.552847474839727 281.9882014961171 9.084108488681169
0.0106 6366.45942912393 1.000291077886408 1.552773611783117 281.9137106944548 9.038458339305716
0.0107 6366.470936307892 1.000290605349921 1.552699694387222 281.8389139987029 8.992824388527188
0.0108 6366.48249058747 1.000290131873842 1.552625722565893 281.7638111814434 8.947208219849136
0.0109 6366.494091997709 1.000289657466355 1.552551696234264 281.6884020148922 8.901611412528572
0.011 6366.505740573709 1.000289182135648 1.55247761530869 281.6126862708924 8.856035541477334
0.0111 6366.517436350625 1.000288705889911 1.552403479706794 281.5366637209385 8.810482177181488
0.0112 6366.529179363667 1.000288228737337 1.552329289347409 281.4603341361643 8.764952885599552
0.0113 6366.5409696481 1.000287750686118 1.552255044150693 281.383697287349 8.719449228071724
0.0114 6366.552807239241 1.000287271744448 1.55218074403805 281.3067529449348 8.673972761236286
0.0115 6366.564692172457 1.000286791920525 1.552106388932094 281.2295008790269 8.628525036935658
0.0116 6366.57662448317 1.000286311222544 1.552031978756744 281.1519408593934 8.583107602122768
0.0117 6366.588604206852 1.000285829658702 1.551957513437176 281.0740726554599 8.537721998764329
0.0118 6366.600631379023 1.000285347237197 1.551882992899757 280.99589603635 8.492369763771936
0.0119 6366.612706035253 1.000284863966225 1.551808417072226 280.9174107708567 8.447052428891984
0.012 6366.624828211159 1.000284379853982 1.551733785883494 280.8386166274653 8.401771520626923
0.0121 6366.636997942408 1.000283894908665 1.551659099263787 280.7595133743479 8.356528560139663
0.0122 6366.649215264712 1.000283409138466 1.551584357144525 280.6801007793691 8.311325063165135
0.0123 6366.66148021383 1.000282922551581 1.551509559458446 280.600378610104 8.266162539928875
0.0124 6366.673792825563 1.000282435156198 1.551434706139545 280.5203466338379 8.221042495055697
0.0125 6366.686153135761 1.000281946960508 1.551359797123048 280.4400046175546 8.175966427472199
0.0126 6366.698561180312 1.000281457972697 1.551284832345481 280.3593523279718 8.130935830336179
0.0127 6366.71101699515 1.000280968200949 1.55120981174459 280.2783895315237 8.085952190936458
0.0128 6366.72352061625 1.000280477653446 1.551134735259397 280.1971159943722 8.041016990609673
0.0129 6366.73607207963 1.000279986338363 1.551059602830223 280.1155314824076 7.996131704650878
0.013 6366.748671421344 1.000279494263877 1.550984414398582 280.0336357612658 7.951297802234253
0.0131 6366.76131867749 1.000279001438157 1.550909169907287 279.9514285963168 7.906516746317933
0.0132 6366.774013884202 1.000278507869368 1.550833869300421 279.868909752688 7.861789993568676
0.0133 6366.786757077652 1.000278013565672 1.550758512523296 279.7860789952646 7.817118994273897
0.0134 6366.79954829405 1.000277518535226 1.550683099522512 279.7029360886776 7.772505192247858
0.0135 6366.812387569641 1.00027702278618 1.550607630245914 279.6194807973333 7.727950024760591
0.0136 6366.825274940707 1.000276526326681 1.550532104642607 279.5357128854015 7.683454922444899
0.0137 6366.838210443564 1.000276029164867 1.550456522662982 279.4516321168334 7.639021309219667
0.0138 6366.851194114562 1.000275531308874 1.550380884258641 279.3672382553494 7.594650602197876
0.0139 6366.864225990083 1.000275032766827 1.550305189382458 279.2825310644633 7.550344211613861
0.014 6366.877306106542 1.00027453354685 1.550229437988568 279.1975103074759 7.506103540735373
0.0141 6366.890434500388 1.000274033657053 1.550153630032414 279.112175747481 7.461929985782384
0.0142 6366.903611208095 1.000273533105544 1.550077765470584 279.0265271473835 7.417824935852432
0.0143 6366.916836266172 1.000273031900421 1.550001844261029 278.9405642698811 7.373789772828108
0.0144 6366.930109711156 1.000272530049775 1.549925866362885 278.8542868774883 7.329825871306435
0.0145 6366.943431579611 1.000272027561688 1.549849831736589 278.7676947325307 7.285934598513502
0.0146 6366.956801908128 1.000271524444234 1.549773740343773 278.680787597168 7.242117314234651
0.0147 6366.970220733328 1.000271020705477 1.549697592147391 278.5935652333709 7.198375370721203
0.0148 6366.983688091854 1.000270516353473 1.549621387111577 278.5060274029505 7.154710112624666
0.0149 6366.997204020377 1.000270011396268 1.549545125201761 278.4181738675464 7.111122876910577
0.015 6367.010768555593 1.000269505841898 1.549468806384611 278.3300043886446 7.067614992787725
0.0151 6367.024381734217 1.000268999698389 1.549392430628045 278.2415187275891 7.02418778163481
0.0152 6367.038043592991 1.000268492973756 1.549315997901199 278.1527166455584 6.980842556910285
0.0153 6367.05175416868 1.000267985676005 1.549239508174474 278.0635979035832 6.937580624083265
0.0154 6367.065513498064 1.00026747781313 1.549162961419537 277.9741622625819 6.894403280573341
0.0155 6367.079321617951 1.000266969393111 1.549086357609259 277.8844094833192 6.851311815653689
0.0156 6367.093178565163 1.000266460423922 1.549009696717758 277.7943393264417 6.808307510392108
0.0157 6367.107084376544 1.000265950913519 1.548932978720407 277.7039515524656 6.765391637569782
0.0158 6367.121039088953 1.000265440869849 1.548856203593836 277.6132459218069 6.722565461620392
0.0159 6367.13504273927 1.000264930300848 1.54877937131585 277.5222221947455 6.679830238539019
0.016 6367.14909536439 1.000264419214435 1.548702481865513 277.4308801314668 6.637187215828082
0.0161 6367.163197001223 1.000263907618518 1.548625535223148 277.3392194920497 6.594637632418715
0.0162 6367.177347686696 1.000263395520992 1.548548531370278 277.2472400364785 6.552182718603923
0.0163 6367.191547457745 1.000262882929737 1.548471470289685 277.1549415246549 6.509823695972284
0.0164 6367.205796351327 1.00026236985262 1.548394351965344 277.062323716374 6.467561777326068
0.0165 6367.220094404405 1.000261856297493 1.548317176382471 276.9693863713659 6.425398166629883
0.0166 6367.234441653958 1.000261342272194 1.548239943527505 276.8761292492721 6.383334058930172
0.0167 6367.248838136975 1.000260827784544 1.548162653388108 276.7825521096632 6.341370640294357
0.0168 6367.263283890453 1.000260312842352 1.548085305953152 276.6886547120565 6.299509087750461
0.0169 6367.277778951402 1.000259797453409 1.548007901212731 276.5944368158865 6.257750569206335
0.017 6367.292323356838 1.00025928162549 1.547930439158157 276.4998981805523 6.216096243403896
0.0171 6367.306917143788 1.000258765366356 1.547852919781948 276.4050385653762 6.17454725983468
0.0172 6367.321560349284 1.00025824868375 1.547775343077832 276.3098577296568 6.133104758697912
0.0173 6367.336253010363 1.000257731585398 1.547697709040749 276.2143554326393 6.091769870822839
0.0174 6367.350995164073 1.000257214079009 1.547620017666838 276.1185314335279 6.050543717610082
0.0175 6367.36578684746 1.000256696172277 1.547542268953453 276.0223854915088 6.009427410978672
0.0176 6367.38062809758 1.000256177872876 1.547464462899145 275.9259173657327 5.968422053296015
0.0177 6367.395518951489 1.000255659188462 1.54738659950364 275.829126815321 5.927528737318918
0.0178 6367.410459446248 1.000255140126675 1.547308678767862 275.732013599389 5.886748546142802
0.0179 6367.425449618918 1.000254620695133 1.54723070069398 275.6345774770342 5.846082553136643
0.018 6367.440489506562 1.000254100901441 1.547152665285284 275.5368182073483 5.805531821888732
0.0181 6367.455579146243 1.000253580753178 1.54707457254629 275.4387355494231 5.765097406150685
0.0182 6367.470718575024 1.000253060257909 1.546996422482701 275.3403292623442 5.724780349777414
0.0183 6367.485907829967 1.000252539423178 1.546918215101345 275.2415991052152 5.684581686680064
0.0184 6367.501146948132 1.000252018256508 1.546839950410314 275.1425448371396 5.64450244076278
0.0185 6367.516435966578 1.000251496765403 1.546761628418798 275.0431662172444 5.604543625877237
0.0186 6367.531774922357 1.000250974957346 1.54668324913722 274.9434630046807 5.564706245768281
0.0187 6367.547163852519 1.000250452839801 1.546604812577108 274.8434349586286 5.524991294022826
0.0188 6367.562602794111 1.000249930420209 1.546526318751215 274.7430818382803 5.485399754010273
0.0189 6367.57809178417 1.000249407705991 1.546447767673431 274.6424034028931 5.445932598851845
0.019 6367.593630859732 1.000248884704545 1.546369159358792 274.541399411742 5.406590791351016
0.0191 6367.609220057823 1.00024836142325 1.546290493823504 274.440069624149 5.367375283955254
0.0192 6367.624859415461 1.000247837869461 1.546211771084917 274.3384137995016 5.328287018713706
0.0193 6367.640548969656 1.000247314050511 1.546132991161548 274.2364316972343 5.289326927222075
0.0194 6367.656288757409 1.000246789973712 1.546054154073043 274.1341230768406 5.250495930579895
0.0195 6367.672078815712 1.00024626564635 1.545975259840178 274.0314876978736 5.211794939344143
0.0196 6367.687919181544 1.000245741075692 1.545896308484893 273.9285253199627 5.173224853490439
0.0197 6367.703809891876 1.000245216268978 1.54581730003024 273.8252357028085 5.134786562366187
0.0198 6367.719750983663 1.000244691233428 1.545738234500414 273.7216186061886 5.096480944649146
0.0199 6367.735742493851 1.000244165976234 1.545659111920737 273.617673789969 5.058308868309035
0.02 6367.751784459369 1.00024364050457 1.545579932317633 273.5134010140986 5.020271190563541
0.0201 6367.767876917135 1.000243114825579 1.54550069571868 273.4088000386208 4.98236875784179
0.0202 6367.784019904051 1.000242588946384 1.54542140215252 273.3038706236679 4.944602405742294
0.0203 6367.800213457001 1.000242062874081 1.545342051648975 273.198612529496 4.906972959006731
