#theta R n z T P_w
0 6365.5 1.000321948510042 1.560324351282931 288.15 10.91310615107333
0.0001 6365.506698014227 1.0003216504962 1.560252567862709 288.1064629075221 10.88254876700772
0.0002 6365.513441734429 1.000321350800366 1.560180752022432 288.0626287262124 10.85185881456004
0.0003 6365.520231181458 1.000321049428291 1.560108903574289 288.0184973205213 10.82103758651612
0.0004 6365.527066376291 1.000320746385755 1.56003702233143 287.9740685541068 10.79008638024898
0.0005 6365.533947340024 1.000320441678563 1.559965108107988 287.9293422898407 10.7590064976479
0.0006000000000000001 6365.540874093873 1.000320135312549 1.559893160719075 287.8843183898265 10.72779924505537
0.0007 6365.547846659172 1.000319827293576 1.5598211799807 287.8389967153811 10.69646593317903
0.0008 6365.554865057376 1.000319517627531 1.559749165709904 287.7933771270531 10.66500787702798
0.0009000000000000001 6365.561929310058 1.000319206320332 1.559677117724624 287.7474594846225 10.63342639583638
0.001 6365.569039438907 1.000318893377921 1.559605035843804 287.7012436471067 10.60172281299089
0.0011 6365.576195465729 1.000318578806268 1.559532919887315 287.6547294727606 10.56989845595364
0.0012 6365.583397412448 1.000318262611369 1.559460769676025 287.607916819088 10.53795465619307
0.0013 6365.590645301103 1.000317944799247 1.559388585031696 287.5608055428305 10.50589274909823
0.0014 6365.597939153848 1.000317625375949 1.559316365777156 287.5133954999905 10.47371407391706
0.0015 6365.60527899295 1.000317304347552 1.559244111736105 287.4656865458254 10.44141997367408
0.0016 6365.612664840793 1.000316981720154 1.559171822733247 287.4176785348481 10.40901179509196
0.0017 6365.620096719871 1.000316657499883 1.559099498594247 287.369371320838 10.37649088852076
0.0018 6365.627574652794 1.000316331692889 1.559027139145683 287.320764756836 10.34385860785483
0.0019 6365.635098662283 1.000316004305348 1.558954744215237 287.2718586951613 10.31111631046546
0.002 6365.642668771167 1.000315675343463 1.558882313631372 287.2226529874123 10.27826535712119
0.0021 6365.650285002391 1.000315344813458 1.558809847223618 287.1731474844599 10.24530711190399
0.0022 6365.657947379006 1.000315012721585 1.558737344822542 287.12334203646 10.21224294213697
0.0023 6365.665655924177 1.000314679074118 1.558664806259543 287.0732364928471 10.17907421830014
0.0024 6365.673410661176 1.000314343877357 1.558592231367033 287.022830702358 10.14580231396534
0.0025 6365.681211613381 1.000314007137624 1.558519619978479 286.9721245130203 10.1124286057075
0.0026 6365.689058804282 1.000313668861265 1.558446971928235 286.9211177721699 10.07895447303511
0.0027 6365.696952257471 1.000313329054652 1.55837428705162 286.8698103264391 10.04538129830103
0.0028 6365.704891996652 1.000312987724177 1.558301565185008 286.8182020217627 10.01171046662474
0.0029 6365.712878045631 1.000312644876256 1.558228806165672 286.7662927033956 9.977943365822007
0.003 6365.720910428323 1.000312300517329 1.558156009831903 286.7140822159012 9.94408138631505
0.0031 6365.728989168743 1.000311954653858 1.558083176022991 286.6615704031686 9.910125921061708
0.0032 6365.737114291015 1.000311607292326 1.558010304579156 286.6087571084016 9.876078365465206
0.0033 6365.745285819363 1.00031125843924 1.55793739534164 286.5556421741416 9.841940117306619
0.0034 6365.753503778115 1.000310908101129 1.557864448152654 286.5022254422501 9.807712576650452
0.0035 6365.761768191702 1.000310556284543 1.557791462855376 286.4485067539384 9.77339714578039
0.0036 6365.770079084656 1.000310202996052 1.557718439294054 286.3944859497382 9.738995229096956
0.0037 6365.778436481608 1.000309848242251 1.557645377313802 286.3401628695482 9.704508233064105
0.0038 6365.786840407292 1.000309492029753 1.55757227676082 286.2855373525994 9.669937566102744
0.0039 6365.795290886543 1.000309134365193 1.557499137482281 286.2306092374723 9.635284638518112
0.004 6365.803787944291 1.000308775255226 1.557425959326295 286.1753783621092 9.600550862423043
0.0041 6365.812331605567 1.000308414706529 1.557352742142075 286.1198445638137 9.565737651653579
0.004200000000000001 6365.820921895499 1.000308052725796 1.557279485779759 286.0640076792569 9.530846421688125
0.0043 6365.829558839313 1.000307689319745 1.557206190090476 286.0078675444655 9.495878589555378
0.0044 6365.838242462331 1.000307324495111 1.557132854926373 285.9514239948516 9.460835573767948
0.004500000000000001 6365.84697278997 1.000306958258648 1.557059480140618 285.8946768651944 9.425718794226254
0.0046 6365.855749847744 1.000306590617132 1.556986065587409 285.8376259896644 9.390529672148054
0.0047 6365.864573661262 1.000306221577355 1.556912611121875 285.7802712017996 9.355269629968491
0.0048 6365.873444256225 1.000305851146129 1.556839116600191 285.7226123345407 9.319940091276575
0.0049 6365.88236165843 1.000305479330286 1.556765581879546 285.6646492202079 9.284542480715015
0.005 6365.891325893765 1.000305106136674 1.556692006818109 285.6063816905302 9.249078223912635
0.0051 6365.900336988209 1.00030473157216 1.556618391275111 285.5478095766392 9.213548747394858
0.005200000000000001 6365.909394967835 1.000304355643628 1.556544735110833 285.4889327090699 9.177955478497733
0.0053 6365.918499858806 1.000303978357983 1.556471038186409 285.4297509177599 9.142299845281908
0.0054 6365.927651687375 1.000303599722141 1.556397300364167 285.3702640320615 9.10658327645363
0.005500000000000001 6365.936850479884 1.000303219743042 1.556323521507389 285.3104718807539 9.070807201285522
0.0056 6365.946096262765 1.000302838427638 1.556249701480345 285.2503742920306 9.034973049523112
0.0057 6365.955389062538 1.000302455782899 1.556175840148377 285.1899710935062 8.999082251301948
0.0058 6365.964728905808 1.000302071815812 1.556101937377876 285.1292621122451 8.963136237078601
0.0059 6365.974115819273 1.00030168653338 1.556027993036155 285.0682471747267 8.927136437522964
0.006 6365.983549829712 1.000301299942622 1.555954006991622 285.0069261068746 8.891084283449109
0.0061 6365.99303096399 1.00030091205057 1.555879979113789 284.9452987340627 8.854981205731942
0.006200000000000001 6366.002559249061 1.000300522864276 1.555805909273048 284.8833648811031 8.818828635213425
0.0063 6366.012134711959 1.000300132390804 1.555731797340947 284.8211243722643 8.782628002626096
0.0064 6366.021757379805 1.000299740637233 1.555657643190002 284.7585770312706 8.746380738506112
0.006500000000000001 6366.0314272798 1.000299347610657 1.555583446693805 284.6957226812968 8.710088273102873
0.0066 6366.04114443923 1.000298953318185 1.555509207726949 284.6325611450033 8.673752036312493
0.0067 6366.050908885461 1.000298557766939 1.555434926165112 284.5690922445004 8.637373457570265
0.0068 6366.060720645943 1.000298160964057 1.555360601884991 284.5053158013728 8.600953965777267
0.006900000000000001 6366.070579748201 1.000297762916688 1.555286234764297 284.4412316366905 8.564494989220012
0.007 6366.080486219847 1.000297363631995 1.555211824681828 284.3768395709975 8.52799795547657
0.0071 6366.090440088565 1.000296963117155 1.555137371517447 284.3121394243293 8.491464291339565
0.007200000000000001 6366.100441382121 1.000296561379358 1.555062875151984 284.2471310162131 8.45489542272902
0.0073 6366.110490128359 1.000296158425805 1.554988335467423 284.1818141656676 8.418292774605252
0.0074 6366.1205863552 1.000295754263711 1.5549137523467 284.1161886912031 8.381657770881839
0.007500000000000001 6366.130730090641 1.000295348900301 1.554839125673865 284.0502544108334 8.344991834345215
0.0076 6366.140921362756 1.000294942342815 1.554764455333987 283.9840111420875 8.308296386574149
0.0077 6366.151160199691 1.000294534598502 1.55468974121326 283.9174587020096 8.271572847852701
0.007800000000000001 6366.161446629669 1.000294125674622 1.554614983198808 283.8505969071533 8.234822637079962
0.007900000000000001 6366.171780680987 1.000293715578449 1.554540181178925 283.7834255735874 8.198047171686456
0.008 6366.182162382014 1.000293304317263 1.554465335042958 283.7159445169076 8.161247867553774
0.0081 6366.192591761193 1.000292891898359 1.554390444681231 283.6481535522429 8.124426138930939
0.008200000000000001 6366.203068847038 1.00029247832904 1.554315509985207 283.580052494255 8.08758339834765
0.0083 6366.213593668132 1.00029206361662 1.554240530847372 283.5116411571388 8.050721056527602
0.008400000000000001 6366.224166253132 1.000291647768421 1.554165507161301 283.4429193546397 8.01384052231146
0.008500000000000001 6366.234786630764 1.000291230791776 1.554090438821637 283.3738869000362 7.976943202560808
0.0086 6366.245454829819 1.000290812694028 1.554015325724082 283.3045436061751 7.940030502090721
0.008700000000000001 6366.256170879162 1.000290393482525 1.553940167765392 283.2348892854483 7.903103823570754
0.008800000000000001 6366.266934807722 1.000289973164628 1.553864964843392 283.164923749804 7.866164567445081
0.0089 6366.277746644499 1.000289551747705 1.553789716857017 283.0946468107589 7.82921413185263
0.009000000000000001 6366.288606418555 1.00028912923913 1.553714423706235 283.0240582793925 7.792253912537986
0.0091 6366.299514159021 1.000288705646288 1.553639085292084 282.9531579663643 7.755285302774806
0.0092 6366.31046989509 1.000288280976569 1.553563701516697 282.8819456819141 7.718309693280037
0.009300000000000001 6366.321473656023 1.000287855237372 1.553488272283275 282.8104212358502 7.681328472122199
0.0094 6366.332525471143 1.000287428436103 1.553412797496072 282.738584437573 7.64434302464824
0.0095 6366.343625369835 1.000287000580173 1.553337277060476 282.6664350960749 7.607354733398192
0.009600000000000001 6366.354773381547 1.000286571677001 1.553261710882884 282.5939730199465 7.570364978023042
0.0097 6366.365969535789 1.000286141734011 1.553186098870836 282.5211980173702 7.533375135196745
0.0098 6366.377213862133 1.000285710758635 1.553110440932887 282.4481098961386 7.496386578540479
0.009900000000000001 6366.388506390209 1.000285278758309 1.553034736978722 282.3747084636419 7.45940067853203
0.01 6366.399847149708 1.000284845740474 1.552958986919069 282.3009935268982 7.422418802436297
0.0101 6366.411236170379 1.000284411712578 1.552883190665772 282.2269648925352 7.385442314212063
0.0102 6366.422673482032 1.000283976682072 1.552807348131747 282.1526223667905 7.348472574428062
0.0103 6366.434159114531 1.000283540656412 1.552731459230977 282.0779657555471 7.311510940196827
0.0104 6366.445693097799 1.00028310364306 1.552655523878528 282.0029948643036 7.274558765076345
0.0105 6366.457275461815 1.000282665649479 1.55257954199056 281.9277094982039 7.237617399001329
0.0106 6366.468906236612 1.000282226683138 1.552503513484351 281.8521094620195 7.200688188191321
0.0107 6366.48058545228 1.000281786751509 1.55242743827821 281.7761945601791 7.163772475082262
0.0108 6366.492313138962 1.000281345862067 1.552351316291536 281.6999645967447 7.126871598232277
0.0109 6366.504089326855 1.000280904022289 1.552275147444859 281.6234193754416 7.089986892253639
0.011 6366.515914046207 1.000280461239656 1.552198931659747 281.5465586996519 7.053119687727686
0.0111 6366.527787327322 1.000280017521651 1.552122668858897 281.4693823724091 7.016271311120141
0.0112 6366.53970920055 1.000279572875759 1.552046358966064 281.3918901964274 6.979443084713618
0.0113 6366.551679696296 1.000279127309467 1.551970001906087 281.3140819740782 6.942636326515001
0.0114 6366.563698845012 1.000278680830262 1.551893597604928 281.2359575074196 6.905852350188431
0.0115 6366.575766677204 1.000278233445636 1.551817145989597 281.1575165981725 6.869092464963381
0.0116 6366.587883223422 1.000277785163077 1.551740646988219 281.0787590477565 6.832357975570927
0.0117 6366.600048514265 1.000277335990078 1.551664100529986 280.999684657278 6.795650182157965
0.0118 6366.612262580381 1.00027688593413 1.551587506545212 280.9202932275238 6.758970380204711
0.0119 6366.624525452462 1.000276435002725 1.55151086496527 280.8405845589972 6.722319860461617
0.012 6366.636837161248 1.000275983203354 1.55143417572264 280.7605584518882 6.685699908856522
0.0121 6366.649197737524 1.00027553054351 1.551357438750843 280.680214706097 6.649111806426746
0.0122 6366.661607212118 1.000275077030682 1.55128065398458 280.5995531212342 6.612556829240583
0.0123 6366.674065615904 1.00027462267236 1.551203821359565 280.5185734966266 6.57603624832185
0.0124 6366.686572979797 1.000274167476032 1.551126940812637 280.4372756313172 6.539551329572131
0.0125 6366.699129334756 1.000273711449187 1.551050012281692 280.3556593240831 6.503103333701327
0.0126 6366.711734711783 1.000273254599308 1.550973035705752 280.2737243734117 6.466693516140067
0.0127 6366.724389141916 1.000272796933879 1.55089601102489 280.1914705775479 6.430323126984135
0.0128 6366.737092656238 1.00027233846038 1.550818938180314 280.1088977344529 6.393993410899818
0.0129 6366.749845285871 1.00027187918629 1.550741817114293 280.0260056418396 6.357705607063783
0.013 6366.762647061975 1.000271419119084 1.550664647770148 279.9427940971608 6.321460949082411
0.0131 6366.77549801575 1.000270958266234 1.550587430092334 279.859262897627 6.28526066492451
0.0132 6366.788398178431 1.000270496635209 1.550510164026412 279.7754118402003 6.249105976844106
0.0133 6366.801347581292 1.000270034233473 1.550432849518953 279.6912407216004 6.212998101308835
0.0134 6366.814346255644 1.000269571068487 1.550355486517683 279.6067493383165 6.176938248931264
0.0135 6366.82739423283 1.000269107147709 1.550278074971376 279.5219374866073 6.140927624395545
0.0136 6366.840491544231 1.00026864247859 1.550200614829933 279.4368049625008 6.10496742638454
0.0137 6366.853638221261 1.000268177068578 1.550123106044266 279.3513515618005 6.06905884750997
0.0138 6366.86683429537 1.000267710925114 1.550045548566446 279.2655770800969 6.03320307424542
0.0139 6366.880079798036 1.000267244055637 1.549967942349572 279.179481312768 5.997401286854834
0.014 6366.893374760773 1.000266776467576 1.549890287347849 279.0930640549726 5.961654659319082
0.0141 6366.906719215127 1.000266308168357 1.549812583516556 279.0063251016749 5.925964359275278
0.0142 6366.92011319267 1.0002658391654 1.549734830812088 278.9192642476436 5.890331547946658
0.0143 6366.93355672501 1.000265369466117 1.549657029191842 278.8318812874348 5.854757380065828
0.0144 6366.947049843781 1.000264899077915 1.549579178614356 278.7441760154214 5.819243003817881
0.0145 6366.960592580646 1.000264428008191 1.549501279039234 278.6561482257988 5.783789560774194
0.0146 6366.974184967298 1.000263956264339 1.549423330427128 278.5677977125614 5.74839818581491
0.0147 6366.987827035456 1.000263483853742 1.549345332739799 278.4791242695381 5.713070007075793
0.0148 6367.001518816864 1.000263010783776 1.549267285940077 278.3901276903865 5.677806145878849
0.0149 6367.015260343294 1.00026253706181 1.549189189991851 278.3008077685867 5.642607716663609
0.015 6367.029051646545 1.000262062695205 1.54911104486006 278.211164297459 5.607475826928334
0.0151 6367.042892758437 1.000261587691311 1.549032850510787 278.1211970701587 5.572411577162401
0.0152 6367.056783710816 1.000261112057472 1.548954606911108 278.0309058796928 5.537416060788511
0.0153 6367.070724535552 1.00026063580102 1.548876314029198 277.9402905189089 5.50249036409392
0.0154 6367.084715264536 1.000260158929279 1.548797971834287 277.8493507805127 5.467635566173758
0.0155 6367.098755929684 1.000259681449565 1.548719580296707 277.7580864570563 5.432852738863497
0.0156 6367.112846562928 1.000259203369182 1.548641139387802 277.6664973409673 5.39814294668786
0.0157 6367.126987196225 1.000258724695423 1.548562649080003 277.5745832245378 5.363507246794434
0.0158 6367.141177861551 1.000258245435573 1.548484109346809 277.4823438999177 5.328946688890302
0.0159 6367.155418590901 1.000257765596905 1.54840552016277 277.3897791591447 5.29446231519258
0.016 6367.169709416287 1.000257285186681 1.548326881503466 277.2968887941323 5.260055160363949
0.0161 6367.184050369743 1.000256804212153 1.548248193345578 277.2036725966699 5.225726251453362
0.0162 6367.198441483317 1.000256322680559 1.54816945566683 277.1101303584404 5.191476607843889
0.0163 6367.212882789073 1.000255840599127 1.548090668445961 277.0162618710264 5.157307241196732
0.0164 6367.227374319094 1.000255357975074 1.548011831662806 276.922066925892 5.123219155387329
0.0165 6367.241916105476 1.000254874815602 1.547932945298211 276.8275453144068 5.089213346457208
0.0166 6367.25650818033 1.000254391127903 1.547854009334101 276.732696827852 5.055290802559928
0.0167 6367.271150575783 1.000253906919155 1.547775023753412 276.6375212574079 5.021452503901367
0.0168 6367.285843323973 1.000253422196524 1.547695988540162 276.5420183941723 4.987699422691281
0.0169 6367.300586457051 1.00025293696716 1.547616903679373 276.4461880291659 4.954032523091226
0.017 6367.315380007181 1.000252451238203 1.547537769157099 276.350029953321 4.920452761156956
0.0171 6367.330224006537 1.000251965016778 1.547458584960463 276.2535439575107 4.886961084796017
0.0172 6367.345118487305 1.000251478309995 1.54737935107762 276.1567298325193 4.853558433705377
0.0173 6367.360063481678 1.00025099112495 1.547300067497736 276.0595873690899 4.820245739336452
0.0174 6367.375059021865 1.000250503468726 1.547220734210992 275.9621163578767 4.787023924828135
0.0175 6367.390105140076 1.00025001534839 1.547141351208655 275.8643165895045 4.753893904977126
0.0176 6367.405201868534 1.000249526770993 1.54706191848294 275.7661878545272 4.720856586174536
0.0177 6367.420349239468 1.000249037743574 1.54698243602712 275.6677299434572 4.687912866367459
0.0178 6367.435547285115 1.000248548273153 1.54690290383551 275.5689426467537 4.655063635007207
0.0179 6367.450796037715 1.000248058366737 1.54682332190342 275.4698257548524 4.622309773012126
0.018 6367.466095529516 1.000247568031315 1.546743690227152 275.3703790581475 4.589652152715332
0.0181 6367.481445792771 1.000247077273861 1.546664008804034 275.2706023469858 4.557091637817311
0.0182 6367.496846859737 1.000246586101332 1.546584277632434 275.1704954117084 4.524629083354671
0.0183 6367.512298762674 1.000246094520669 1.546504496711688 275.0700580426209 4.492265335646398
0.0184 6367.527801533844 1.000245602538796 1.546424666042151 274.9692900300169 4.460001232258266
0.0185 6367.543355205513 1.000245110162619 1.546344785625165 274.8681911641664 4.42783760195652
0.0186 6367.558959809949 1.000244617399028 1.546264855463082 274.7667612353338 4.395775264671822
0.0187 6367.57461537942 1.000244124254894 1.546184875559257 274.6650000337712 4.363815031456417
0.0188 6367.590321946194 1.000243630737072 1.546104845917996 274.562907349737 4.331957704449536
0.0189 6367.60607954254 1.000243136852397 1.546024766544663 274.4604829734893 4.300204076836121
0.019 6367.621888200725 1.000242642607687 1.545944637445531 274.3577266952865 4.268554932808258
0.0191 6367.637747953016 1.000242148009741 1.545864458627912 274.2546383053985 4.23701104753107
0.0192 6367.653658831676 1.000241653065339 1.545784230100073 274.1512175941074 4.205573187105726
0.0193 6367.669620868967 1.000241157781244 1.545703951871249 274.0474643517126 4.174242108535071
0.0194 6367.685634097148 1.000240662164198 1.54562362395166 273.9433783685375 4.143018559690058
0.0195 6367.701698548472 1.000240166220923 1.545543246352497 273.8389594349291 4.11190327927519
0.0196 6367.717814255191 1.000239669958125 1.545462819085905 273.7342073412577 4.080896996794846
0.0197 6367.733981249547 1.000239173382485 1.545382342165031 273.6291218779414 4.050000432527386
0.0198 6367.75019956378 1.00023867650067 1.54530181560389 273.5237028354276 4.019214297487823
0.0199 6367.766469230123 1.000238179319321 1.54522123941757 273.417950004199 3.988539293398392
0.02 6367.782790280801 1.000237681845063 1.545140613622017 273.3118631747919 3.957976112663344
0.0201 6367.799162748032 1.000237184084498 1.54505993823419 273.2054421377896 3.927525438337669
0.0202 6367.815586664025 1.000236686044208 1.544979213271946 273.0986866838347 3.897187944101786
0.0203 6367.832062060983 1.000236187730755 1.544898438754104 272.9915966036109 3.866964294228686
