#theta R n z T P_w
0 6365.5 1.000276706528492 1.560324351282931 288.15 0.8525864180526037
0.0001 6365.506698014227 1.000276521529387 1.560241859300445 288.1064629075221 0.8501991224224784
0.0002 6365.513448551744 1.000276335187583 1.560159357722359 288.0625844136656 0.847799049077386
0.0003 6365.520251618917 1.00027614750537 1.560076846467088 288.0183644770367 0.8453863222863363
0.0004 6365.527107222171 1.000275958485051 1.559994325453536 287.9738030558868 0.8429610668332556
0.0005 6365.53401536798 1.000275768128944 1.559911794600803 287.9289001081305 0.8405234080086829
0.0006000000000000001 6365.540976062873 1.000275576439384 1.5598292538284 287.8836555913275 0.8380734715994971
0.0007 6365.547989313431 1.000275383418721 1.559746703056136 287.8380694627007 0.8356113838805408
0.0008 6365.55505512629 1.00027518906932 1.559664142203996 287.7921416791122 0.8331372716039711
0.0009000000000000001 6365.562173508141 1.000274993393562 1.559581571192444 287.7458721970814 0.8306512619908176
0.001 6365.569344465724 1.000274796393842 1.559498989942108 287.6992609727967 0.8281534827221806
0.0011 6365.576568005831 1.000274598072571 1.559416398373974 287.6523079620973 0.8256440619288103
0.0012 6365.583844135311 1.000274398432176 1.559333796409323 287.6050131204801 0.823123128181932
0.0013 6365.59117286106 1.000274197475098 1.559251183969654 287.5573764031104 0.8205908104843508
0.0014 6365.59855419003 1.000273995203795 1.5591685609768 287.5093977648052 0.818047238259954
0.0015 6365.605988129223 1.000273791620736 1.559085927352875 287.46107716005 0.8154925413450764
0.0016 6365.613474685693 1.00027358672841 1.559003283020246 287.4124145429936 0.8129268499785767
0.0017 6365.621013866546 1.000273380529318 1.558920627901563 287.3634098674537 0.810350294792518
0.0018 6365.628605678939 1.000273173025977 1.558837961919723 287.3140630868992 0.8077630068015769
0.0019 6365.63625013008 1.000272964220918 1.558755284997942 287.2643741544797 0.8051651173949183
0.002 6365.643947227228 1.000272754116687 1.558672597059686 287.2143430230198 0.802556758326172
0.0021 6365.651696977692 1.000272542715847 1.558589898028601 287.163969645001 0.7999380617027797
0.0022 6365.659499388835 1.000272330020972 1.558507187828725 287.1132539725739 0.797309159976867
0.0023 6365.667354468065 1.000272116034655 1.558424466384251 287.0621959575759 0.7946701859363898
0.0024 6365.675262222847 1.0002719007595 1.558341733619636 287.0107955514953 0.7920212726935075
0.0025 6365.683222660689 1.000271684198127 1.558258989459695 286.9590527055192 0.7893625536772164
0.0026 6365.691235789155 1.000271466353171 1.558176233829366 286.9069673704915 0.7866941626213855
0.0027 6365.699301615857 1.000271247227282 1.558093466653891 286.8545394969314 0.7840162335558296
0.0028 6365.707420148455 1.000271026823123 1.558010687858731 286.8017690350442 0.7813289007970484
0.0029 6365.71559139466 1.000270805143373 1.557927897369669 286.7486559347107 0.7786322989377419
0.003 6365.723815362233 1.000270582190723 1.557845095112629 286.695200145486 0.775926562836919
0.0031 6365.732092058983 1.000270357967882 1.55776228101388 286.6414016166121 0.7732118276105888
0.0032 6365.740421492768 1.00027013247757 1.557679454999852 286.5872602970061 0.7704882286212411
0.0033 6365.748803671497 1.000269905722523 1.557596616997228 286.5327761352713 0.7677559014685087
0.0034 6365.757238603124 1.000269677705491 1.557513766932982 286.4779490796922 0.7650149819789249
0.0035 6365.765726295656 1.000269448429238 1.557430904734252 286.4227790782337 0.7622656061959677
0.0036 6365.774266757147 1.000269217896541 1.557348030328489 286.3672660785477 0.7595079103703906
0.0037 6365.782859995697 1.000268986110193 1.557265143643301 286.3114100279726 0.7567420309502457
0.0038 6365.791506019456 1.000268753073001 1.557182244606586 286.2552108735334 0.7539681045709
0.0039 6365.800204836623 1.000268518787784 1.557099333146438 286.198668561948 0.7511862680453351
0.004 6365.808956455445 1.000268283257375 1.557016409191219 286.1417830396089 0.7483966583532777
0.0041 6365.817760884213 1.000268046484625 1.556933472669481 286.084554252613 0.7455994126326509
0.004200000000000001 6365.826618131271 1.000267808472393 1.556850523510036 286.0269821467381 0.7427946681684036
0.0043 6365.835528205007 1.000267569223556 1.556767561641932 285.9690666674545 0.7399825623830805
0.0044 6365.844491113856 1.000267328741003 1.556684586994378 285.910807759937 0.7371632328273786
0.004500000000000001 6365.853506866302 1.000267087027636 1.556601599496914 285.8522053690352 0.7343368171686965
0.0046 6365.862575470876 1.000266844086372 1.556518599079201 285.7932594393031 0.7315034531825495
0.0047 6365.871696936156 1.000266599920142 1.556435585671205 285.7339699149874 0.7286632787419788
0.0048 6365.880871270764 1.000266354531889 1.556352559203087 285.674336740033 0.7258164318078162
0.0049 6365.890098483373 1.00026610792457 1.556269519605206 285.6143598580778 0.7229630504183837
0.005 6365.899378582698 1.000265860101155 1.556186466808216 285.5540392124639 0.7201032726800455
0.0051 6365.908711577504 1.000265611064629 1.556103400742871 285.4933747462259 0.717237236756629
0.005200000000000001 6365.9180974766 1.000265360817988 1.556020321340307 285.432366402103 0.7143650808599812
0.0053 6365.927536288841 1.000265109364243 1.555937228531758 285.3710141225328 0.7114869432396842
0.0054 6365.937028023131 1.000264856706417 1.555854122248714 285.3093178496514 0.7086029621730593
0.005500000000000001 6365.946572688415 1.000264602847548 1.555771002422872 285.2472775252994 0.7057132759554547
0.0056 6365.956170293689 1.000264347790685 1.555687868986219 285.1848930910218 0.7028180228902597
0.0057 6365.96582084799 1.00026409153889 1.555604721870874 285.1221644880678 0.6999173412789302
0.0058 6365.9755243604 1.000263834095241 1.55552156100923 285.0590916573973 0.6970113694112935
0.0059 6365.985280840052 1.000263575462825 1.555438386333869 284.9956745396624 0.6941002455547762
0.006 6365.995090296117 1.000263315644744 1.555355197777595 284.9319130752377 0.6911841079458206
0.0061 6366.004952737818 1.000263054644114 1.555271995273453 284.8678072041843 0.6882630947783251
0.006200000000000001 6366.014868174416 1.00026279246406 1.555188778754691 284.8033568662971 0.6853373441958858
0.0063 6366.024836615221 1.000262529107723 1.555105548154756 284.738562001064 0.6824069942799983
0.0064 6366.034858069586 1.000262264578256 1.555022303407356 284.6734225476888 0.6794721830412468
0.006500000000000001 6366.04493254691 1.000261998878824 1.554939044446367 284.6079384450858 0.6765330484091547
0.0066 6366.055060056634 1.000261732012605 1.554855771205927 284.5421096318795 0.6735897282223261
0.0067 6366.065240608244 1.000261463982788 1.554772483620364 284.4759360464167 0.6706423602191288
0.0068 6366.07547421127 1.000261194792578 1.554689181624202 284.4094176267425 0.667691082026815
0.006900000000000001 6366.085760875288 1.000260924445188 1.554605865152244 284.3425543106304 0.6647360311530309
0.007 6366.096100609913 1.000260652943846 1.554522534139435 284.2753460355638 0.661777344975239
0.0071 6366.10649342481 1.000260380291793 1.554439188520997 284.2077927387367 0.658815160730957
0.007200000000000001 6366.11693932968 1.000260106492279 1.554355828232335 284.139894357077 0.6558496155090481
0.0073 6366.127438334274 1.000259831548569 1.554272453209088 284.071650827217 0.6528808462387019
0.0074 6366.137990448383 1.000259555463939 1.554189063387077 284.0030620855113 0.6499089896805128
0.007500000000000001 6366.148595681841 1.000259278241678 1.554105658702386 283.9341280680363 0.6469341824168029
0.0076 6366.159254044525 1.000258999885085 1.554022239091271 283.8648487105851 0.6439565608417162
0.0077 6366.169965546356 1.000258720397473 1.553938804490207 283.7952239486843 0.6409762611523544
0.007800000000000001 6366.180730197298 1.000258439782165 1.55385535483595 283.7252537175654 0.637993419337913
0.007900000000000001 6366.191548007353 1.000258158042498 1.553771890065354 283.6549379522052 0.6350081711718781
0.008 6366.202418986572 1.000257875181818 1.553688410115628 283.5842765872852 0.63202065220072
0.0081 6366.213343145043 1.000257591203487 1.553604914924038 283.513269557221 0.6290309977356398
0.008200000000000001 6366.2243204929 1.000257306110873 1.553521404428211 283.4419167961499 0.6260393428425836
0.0083 6366.235351040315 1.000257019907359 1.553437878565903 283.3702182379496 0.6230458223335342
0.008400000000000001 6366.246434797506 1.000256732596341 1.553354337275089 283.2981738162078 0.6200505707558533
0.008500000000000001 6366.25757177473 1.000256444181223 1.553270780494001 283.2257834642522 0.6170537223841304
0.0086 6366.268761982286 1.000256154665422 1.553187208161059 283.1530471151385 0.6140554112103335
0.008700000000000001 6366.280005430516 1.000255864052366 1.553103620214879 283.0799647016446 0.6110557709342486
0.008800000000000001 6366.291302129801 1.000255572345494 1.553020016594357 283.0065361562941 0.6080549349551675
0.0089 6366.302652090563 1.000255279548259 1.55293639723851 282.9327614113389 0.6050530363619071
0.009000000000000001 6366.314055323269 1.000254985664121 1.552852762086641 282.8586403987528 0.6020502079233626
0.0091 6366.325511838422 1.000254690696553 1.552769111078248 282.7841730502554 0.5990465820802955
0.0092 6366.337021646569 1.000254394649041 1.552685444153045 282.7093592973005 0.5960422909357148
0.009300000000000001 6366.348584758297 1.000254097525077 1.55260176125094 282.6341990710697 0.5930374662455468
0.0094 6366.360201184232 1.00025379932817 1.552518062312108 282.5586923024906 0.5900322394102897
0.0095 6366.371870935043 1.000253500061835 1.552434347276853 282.4828389222188 0.5870267414652919
0.009600000000000001 6366.383594021437 1.000253199729601 1.55235061608579 282.4066388606615 0.5840211030727178
0.0097 6366.395370454161 1.000252898335005 1.552266868679693 282.3300920479541 0.5810154545116798
0.0098 6366.407200244004 1.000252595881598 1.552183104999552 282.2531984139717 0.578009925669824
0.009900000000000001 6366.419083401795 1.000252292372938 1.552099324986568 282.1759578883356 0.5750046460347175
0.01 6366.431019938398 1.000251987812597 1.552015528582205 282.0983704004124 0.5719997446850484
0.0101 6366.443009864724 1.000251682204154 1.551931715728101 282.020435879297 0.568995350281189
0.0102 6366.455053191716 1.000251375551202 1.551847886366093 281.9421542538479 0.5659915910578629
0.0103 6366.46714993036 1.000251067857343 1.551764040438272 281.8635254526574 0.5629885948143456
0.0104 6366.479300091684 1.000250759126187 1.551680177886952 281.784549404052 0.5599864889058647
0.0105 6366.49150368675 1.000250449361359 1.551596298654618 281.7052260361273 0.5569854002363916
0.0106 6366.503760726659 1.000250138566489 1.551512402683974 281.6255552767133 0.5539854552487788
0.0107 6366.516071222554 1.000249826745222 1.551428489918007 281.5455370533972 0.5509867799171978
0.0108 6366.528435185616 1.00024951390121 1.551344560299829 281.4651712934946 0.5479894997376239
0.0109 6366.540852627063 1.000249200038115 1.551260613772826 281.3844579240903 0.544993739721034
0.011 6366.553323558152 1.00024888515961 1.551176650280591 281.3033968720091 0.5419996243839974
0.0111 6366.565847990179 1.000248569269379 1.551092669766928 281.2219880638394 0.5390072777413061
0.0112 6366.578425934475 1.000248252371114 1.551008672175823 281.1402314259093 0.5360168232969081
0.0113 6366.591057402416 1.000247934468517 1.550924657451535 281.0581268842988 0.533028384036211
0.0114 6366.603742405407 1.0002476155653 1.550840625538516 280.9756743648571 0.5300420824186421
0.0115 6366.616480954895 1.000247295665185 1.550756576381439 280.8928737931795 0.5270580403687615
0.0116 6366.629273062366 1.000246974771903 1.550672509925175 280.8097250946188 0.5240763792687253
0.0117 6366.642118739342 1.000246652889196 1.550588426114827 280.7262281942793 0.5210972199501664
0.0118 6366.65501799738 1.000246330020814 1.550504324895716 280.6423830170291 0.5181206826867679
0.0119 6366.667970848079 1.000246006170515 1.550420206213366 280.558189487488 0.5151468871860519
0.012 6366.68097730307 1.000245681342071 1.55033607001354 280.473647530045 0.5121759525822784
0.0121 6366.694037374024 1.000245355539258 1.550251916242204 280.388757068847 0.5092079974283567
0.0122 6366.707151072647 1.000245028765865 1.550167744845522 280.3035180277924 0.5062431396880364
0.0123 6366.720318410684 1.000244701025689 1.55008355576991 280.2179303305551 0.5032814967291899
0.0124 6366.733539399914 1.000244372322536 1.549999348961977 280.1319939005606 0.5003231853155086
0.0125 6366.746814052152 1.000244042660219 1.549915124368594 280.0457086610098 0.4973683215999053
0.0126 6366.760142379253 1.000243712042565 1.549830881936762 279.9590745348554 0.4944170211163498
0.0127 6366.773524393104 1.000243380473405 1.549746621613768 279.8720914448253 0.4914693987733946
0.0128 6366.786960105629 1.00024304795658 1.549662343347139 279.784759313411 0.4885255688465496
0.0129 6366.800449528789 1.000242714495943 1.549578047084537 279.6970780628734 0.4855856449713306
0.013 6366.81399267458 1.000242380095352 1.549493732773884 279.6090476152311 0.4826497401357789
0.0131 6366.827589555033 1.000242044758675 1.549409400363325 279.520667892284 0.4797179666742372
0.0132 6366.841240182215 1.000241708489789 1.549325049801245 279.4319388156013 0.4767904362600018
0.0133 6366.854944568228 1.000241371292578 1.549240681036187 279.3428603065157 0.4738672598982515
0.0134 6366.86870272521 1.000241033170937 1.54915629401696 279.2534322861355 0.4709485479196307
0.0135 6366.882514665331 1.000240694128768 1.549071888692567 279.1636546753501 0.4680344099737009
0.0136 6366.896380400799 1.00024035416998 1.548987465012262 279.0735273948065 0.465124955021505
0.0137 6366.910299943856 1.000240013298493 1.548903022925477 278.983050364939 0.4622202913299349
0.0138 6366.924273306777 1.000239671518233 1.548818562381873 278.8922235059512 0.4593205264646331
0.0139 6366.938300501874 1.000239328833137 1.548734083331324 278.801046737822 0.4564257672837382
0.014 6366.95238154149 1.000238985247146 1.548649585723971 278.7095199803119 0.4535361199316968
0.0141 6366.966516438008 1.000238640764212 1.548565069510111 278.6176431529506 0.4506516898325905
0.0142 6366.980705203837 1.000238295388296 1.548480534640278 278.5254161750607 0.4477725816846541
0.0143 6366.994947851425 1.000237949123363 1.548395981065236 278.4328389657347 0.4448988994533828
0.0144 6367.009244393254 1.000237601973388 1.548311408735979 278.3399114438461 0.4420307463658321
0.0145 6367.023594841839 1.000237253942356 1.548226817603678 278.2466335280495 0.4391682249046207
0.0146 6367.037999209725 1.000236905034256 1.548142207619743 278.1530051367871 0.4363114368021921
0.0147 6367.052457509495 1.000236555253087 1.548057578735838 278.059026188282 0.4334604830347908
0.0148 6367.066969753763 1.000236204602854 1.547972930903799 277.9646966005388 0.4306154638167014
0.0149 6367.081535955177 1.000235853087571 1.547888264075695 277.8700162913491 0.427776478594744
0.015 6367.096156126417 1.000235500711259 1.547803578203806 277.7749851782918 0.424943626042669
0.0151 6367.110830280196 1.000235147477947 1.547718873240661 277.679603178727 0.4221170040554567
0.0152 6367.125558429259 1.00023479339167 1.547634149138966 277.5838702098139 0.4192967097443998
0.0153 6367.140340586387 1.000234438456471 1.547549405851671 277.4877861884869 0.4164828394310406
0.0154 6367.155176764388 1.0002340826764 1.547464643331951 277.3913510314795 0.413675488642588
0.0155 6367.170066976106 1.000233726055515 1.547379861533192 277.2945646553125 0.410874752106369
0.0156 6367.185011234415 1.000233368597881 1.54729506040899 277.1974269762994 0.4080807237448846
0.0157 6367.200009552224 1.000233010307569 1.54721023991316 277.0999379105414 0.4052934966706063
0.0158 6367.215061942471 1.000232651188658 1.547125399999743 277.0020973739382 0.402513163181365
0.0159 6367.230168418127 1.000232291245233 1.547040540623006 276.9039052821771 0.3997398147551477
0.016 6367.245328992193 1.000231930481387 1.546955661737436 276.8053615507441 0.3969735420456512
0.0161 6367.260543677704 1.000231568901219 1.546870763297709 276.7064660949244 0.3942144348775821
0.0162 6367.275812487725 1.000231206508835 1.546785845258746 276.6072188297902 0.3914625822417157
0.0163 6367.29113543535 1.000230843308347 1.546700907575719 276.5076196702247 0.3887180722910263
0.0164 6367.306512533709 1.000230479303875 1.546615950203921 276.4076685308922 0.3859809923354302
0.0165 6367.321943795957 1.000230114499545 1.546530973098978 276.3073653262799 0.3832514288385677
0.0166 6367.337429235285 1.000229748899489 1.546445976216654 276.20670997065 0.3805294674122426
0.0167 6367.352968864911 1.000229382507845 1.546360959512983 276.1057023780758 0.3778151928132135
0.0168 6367.368562698086 1.00022901532876 1.546275922944161 276.0043424624413 0.3751086889390928
0.0169 6367.384210748089 1.000228647366384 1.546190866466686 275.9026301374237 0.3724100388238669
0.017 6367.39991302823 1.000228278624875 1.546105790037176 275.800565316505 0.3697193246342989
0.0171 6367.41566955185 1.000227909108396 1.546020693612551 275.6981479129721 0.3670366276661007
0.0172 6367.43148033232 1.000227538821119 1.545935577149913 275.595377839917 0.3643620283401947
0.0173 6367.447345383041 1.000227167767218 1.545850440606565 275.4922550102364 0.3616956061990653
0.0174 6367.46326471744 1.000226795950876 1.545765283940074 275.3887793366379 0.3590374399033527
0.0175 6367.479238348978 1.000226423376281 1.545680107108198 275.2849507316399 0.3563876072283811
0.0176 6367.495266291145 1.000226050047627 1.545594910068917 275.18076910756 0.3537461850604781
0.0177 6367.511348557456 1.000225675969113 1.545509692780436 275.0762343765381 0.3511132493942892
0.0178 6367.527485161459 1.000225301144946 1.545424455201139 274.9713464505193 0.3484888753291273
0.0179 6367.54367611673 1.000224925579335 1.545339197289706 274.8661052412534 0.3458731370658711
0.018 6367.559921436875 1.000224549276498 1.545253919004981 274.7605106603131 0.3432661079043927
0.0181 6367.576221135527 1.000224172240657 1.545168620306029 274.6545626190758 0.3406678602401919
0.0182 6367.592575226347 1.00022379447604 1.545083301152138 274.5482610287416 0.338078465562003
0.0183 6367.608983723027 1.00022341598688 1.544997961502839 274.4416058003216 0.3354979944487634
0.0184 6367.625446639287 1.000223036777416 1.544912601317842 274.3345968446373 0.33292651656697
0.0185 6367.641963988871 1.000222656851892 1.544827220557085 274.2272340723392 0.3303641006685509
0.0186 6367.658535785555 1.000222276214557 1.544741819180747 274.1195173938944 0.3278108145881156
0.0187 6367.675162043142 1.000221894869666 1.544656397149222 274.0114467195748 0.3252667252403088
0.0188 6367.691842775464 1.000221512821478 1.544570954423077 273.903021959481 0.3227318986180973
0.0189 6367.708577996379 1.000221130074258 1.544485490963159 273.7942430235361 0.3202063997904441
0.019 6367.725367719772 1.000220746632275 1.544400006730489 273.6851098214801 0.3176902929000809
0.0191 6367.742211959557 1.000220362499806 1.544314501686302 273.5756222628814 0.3151836411617866
0.0192 6367.759110729672 1.000219977681128 1.544228975792106 273.4657802571313 0.3126865068603465
0.0193 6367.776064044087 1.000219592180526 1.544143429009568 273.3555837134317 0.3101989513484792
0.0194 6367.793071916796 1.00021920600229 1.544057861300604 273.2450325408248 0.3077210350457928
0.0195 6367.810134361819 1.000218819150714 1.54397227262732 273.1341266481758 0.3052528174367597
0.0196 6367.827251393204 1.000218431630097 1.543886662952046 273.0228659441722 0.3027943570691935
0.0197 6367.844423025026 1.00021804344474 1.543801032237366 272.9112503373302 0.3003457115529495
0.0198 6367.861649271385 1.000217654598953 1.543715380446035 272.7992797359947 0.297906937558587
0.0199 6367.878930146409 1.000217265097047 1.543629707541049 272.6869540483389 0.2954780908161261
0.02 6367.896265664252 1.00021687494334 1.543544013485592 272.5742731823647 0.2930592261138999
0.0201 6367.91365583909 1.000216484142151 1.543458298243122 272.4612370459143 0.2906503972977528
