#theta R n z T P_w
0 6365.5 1.000329616642508 1.560324351282931 288.15 12.61827898717853
0.0001 6365.506698014227 1.000329299473626 1.5602543838555 288.1064629075221 12.58294701185268
0.0002 6365.513440578326 1.000328980588001 1.56018438012503 288.0626362408838 12.54746783017544
0.0003 6365.520227715615 1.000328659991776 1.56011433989057 288.0185198485027 12.51184287852684
0.0004 6365.527059449544 1.000328337691121 1.560044262952217 287.9741135779631 12.47607359827717
0.0005 6365.53393580369 1.000328013692235 1.559974149111089 287.9294172760154 12.44016143570754
0.0006000000000000001 6365.540856801757 1.000327688001345 1.559903998169364 287.8844307885769 12.40410784193011
0.0007 6365.54782246758 1.000327360624709 1.559833809930215 287.8391539607309 12.36791427280798
0.0008 6365.554832825117 1.000327031568611 1.559763584197814 287.7935866367392 12.33158218888421
0.0009000000000000001 6365.561887898457 1.000326700839365 1.55969332077743 287.74772866003 12.2951130552916
0.001 6365.568987711809 1.000326368443312 1.559623019475355 287.7015798732394 12.25850834170441
0.0011 6365.576132289511 1.00032603438682 1.559552680098886 287.6551401181758 12.22176952222854
0.0012 6365.583321656024 1.000325698676286 1.559482302456374 287.6084092358436 12.18489807533854
0.0013 6365.590555835933 1.000325361318133 1.559411886357189 287.5613870664373 12.14789548379065
0.0014 6365.597834853945 1.000325022318814 1.559341431611714 287.5140734493592 12.11076323455422
0.0015 6365.605158734889 1.000324681684805 1.559270938031458 287.4664682232195 12.07350281872878
0.0016 6365.612527503718 1.000324339422611 1.559200405428879 287.4185712258303 12.03611573145616
0.0017 6365.619941185505 1.000323995538763 1.559129833617533 287.3703822942174 11.99860347184623
0.0018 6365.627399805442 1.000323650039821 1.559059222411966 287.3219012646263 11.96096754289758
0.0019 6365.634903388841 1.000323302932366 1.558988571627812 287.2731279725339 11.92320945142248
0.002 6365.642451961135 1.000322954223009 1.558917881081739 287.224062252625 11.88533070794406
0.0021 6365.650045547874 1.000322603918386 1.558847150591433 287.1747039388218 11.84733282663436
0.0022 6365.657684174725 1.000322252025157 1.558776379975651 287.1250528642898 11.80921732523372
0.0023 6365.665367867473 1.000321898550009 1.558705569054189 287.075108861426 11.77098572495619
0.0024 6365.67309665202 1.000321543499653 1.558634717647912 287.0248717618705 11.73263955041289
0.0025 6365.680870554382 1.000321186880825 1.558563825578766 286.9743413965188 11.69418032953502
0.0026 6365.688689600691 1.000320828700287 1.558492892669653 286.9235175955095 11.65560959347846
0.0027 6365.696553817193 1.000320468964824 1.558421918744589 286.8724001882423 11.6169288765507
0.0028 6365.70446323025 1.000320107681246 1.558350903628684 286.8209890033721 11.57813971611941
0.0029 6365.712417866333 1.000319744856387 1.558279847148044 286.7692838688325 11.53924365254318
0.003 6365.72041775203 1.000319380497102 1.558208749129908 286.7172846118063 11.50024222906172
0.0031 6365.728462914035 1.000319014610275 1.558137609402478 286.6649910587729 11.46113699174375
0.0032 6365.736553379158 1.000318647202809 1.558066427795132 286.6124030354725 11.42192948937235
0.0033 6365.744689174318 1.000318278281631 1.557995204138241 286.5595203669362 11.38262127337888
0.0034 6365.752870326543 1.000317907853693 1.557923938263255 286.5063428774737 11.34321389774568
0.0035 6365.76109686297 1.000317535925966 1.557852630002704 286.4528703906971 11.30370891893482
0.0036 6365.769368810845 1.000317162505447 1.557781279190201 286.3991027295091 11.26410789579037
0.0037 6365.777686197523 1.000316787599153 1.557709885660447 286.3450397161031 11.22441238944921
0.0038 6365.786049050461 1.000316411214124 1.557638449249162 286.2906811720044 11.18462396328195
0.0039 6365.794457397228 1.000316033357421 1.557566969793226 286.236026918017 11.14474418276415
0.004 6365.802911265496 1.000315654036126 1.55749544713054 286.1810767742771 11.10477461542545
0.0041 6365.811410683042 1.000315273257344 1.557423881100116 286.125830560229 11.06471683074206
0.004200000000000001 6365.819955677747 1.0003148910282 1.557352271542024 286.0702880946432 11.02457240005935
0.0043 6365.828546277598 1.00031450735584 1.557280618297447 286.0144491956161 10.98434289650129
0.0044 6365.83718251068 1.00031412224743 1.557208921208687 285.9583136805821 10.94402989488811
0.004500000000000001 6365.845864405185 1.000313735710156 1.557137180119042 285.9018813662959 10.90363497163266
0.0046 6365.854591989405 1.000313347751227 1.557065394872984 285.8451520688676 10.86315970467468
0.0047 6365.863365291731 1.000312958377867 1.556993565316126 285.7881256037452 10.82260567337668
0.0048 6365.872184340657 1.000312567597324 1.556921691295022 285.7308017857266 10.7819744584409
0.0049 6365.881049164775 1.000312175416862 1.556849772657481 285.6731804289651 10.74126764182173
0.005 6365.889959792773 1.000311781843766 1.556777809252325 285.6152613469757 10.700486806638
0.0051 6365.898916253443 1.00031138688534 1.556705800929537 285.5570443526229 10.65963353707263
0.005200000000000001 6365.907918575669 1.000310990548906 1.556633747540161 285.4985292581508 10.61870941830116
0.0053 6365.916966788435 1.000310592841803 1.556561648936348 285.4397158751707 10.57771603639111
0.0054 6365.92606092082 1.00031019377139 1.556489504971402 285.3806040146732 10.53665497821765
0.005500000000000001 6365.935201001997 1.000309793345043 1.556417315499726 285.3211934870222 10.49552783136686
0.0056 6365.944387061233 1.000309391570156 1.556345080376808 285.2614841019848 10.45433618406337
0.0057 6365.953619127893 1.00030898845414 1.556272799459287 285.2014756686953 10.41308162505294
0.0058 6365.96289723143 1.000308584004423 1.556200472604911 285.1411679957026 10.37176574354191
0.0059 6365.972221401394 1.00030817822845 1.556128099672538 285.0805608909412 10.33039012908376
0.006 6365.981591667422 1.000307771133682 1.556055680522165 285.0196541617541 10.28895637150199
0.0061 6365.991008059248 1.000307362727597 1.5559832150149 284.9584476148874 10.24746606079265
0.006200000000000001 6366.00047060669 1.000306953017688 1.555910703013005 284.8969410565136 10.20592078704689
0.0063 6366.009979339658 1.000306542011465 1.555838144379829 284.83513429222 10.16432214034922
0.0064 6366.019534288153 1.000306129716453 1.555765538979887 284.7730271270028 10.12267171067992
0.006500000000000001 6366.029135482262 1.000305716140193 1.55569288667881 284.7106193652966 10.08097108784114
0.0066 6366.038782952159 1.000305301290239 1.555620187343348 284.6479108109683 10.03922186135897
0.0067 6366.048476728104 1.000304885174161 1.555547440841472 284.5849012673233 9.997425620393411
0.0068 6366.058216840447 1.000304467799543 1.555474647042205 284.5215905370936 9.955583953636594
0.006900000000000001 6366.068003319619 1.000304049173985 1.555401805815699 284.4579784224733 9.913698449242174
0.007 6366.077836196139 1.000303629305098 1.555328917033288 284.3940647250946 9.871770694715559
0.0071 6366.087715500607 1.000303208200508 1.555255980567485 284.329849246052 9.829802276835325
0.007200000000000001 6366.097641263708 1.000302785867854 1.555182996291919 284.2653317858961 9.787794781555101
0.0073 6366.107613516207 1.00030236231479 1.55510996408131 284.2005121446513 9.745749793920854
0.0074 6366.117632288954 1.00030193754898 1.555036883811608 284.135390121798 9.703668897965095
0.007500000000000001 6366.127697612877 1.000301511578102 1.554963755359899 284.0699655163024 9.661553676631735
0.0076 6366.137809518985 1.000301084409846 1.554890578604387 284.0042381265988 9.619405711670321
0.0077 6366.147968038367 1.000300656051915 1.554817353424461 283.9382077506128 9.577226583556932
0.007800000000000001 6366.158173202192 1.000300226512021 1.554744079700649 283.87187418575 9.535017871392265
0.007900000000000001 6366.168425041706 1.00029979579789 1.554670757314655 283.8052372289134 9.492781152818681
0.008 6366.178723588229 1.000299363917259 1.554597386149325 283.7382966765093 9.450518003929572
0.0081 6366.189068873163 1.000298930877874 1.554523966088707 283.6710523244418 9.408229999171342
0.008200000000000001 6366.199460927982 1.000298496687494 1.554450497017951 283.6035039681182 9.365918711252904
0.0083 6366.209899784237 1.000298061353886 1.554376978823416 283.535651402461 9.323585711058916
0.008400000000000001 6366.220385473552 1.00029762488483 1.554303411392604 283.467494421914 9.281232567559213
0.008500000000000001 6366.230918027625 1.000297187288111 1.554229794614242 283.3990328204362 9.23886084771102
0.0086 6366.241497478228 1.00029674857153 1.554156128378128 283.3302663915196 9.196472116375872
0.008700000000000001 6366.252123857204 1.000296308742891 1.554082412575302 283.2611949281771 9.154067936218285
0.008800000000000001 6366.262797196467 1.000295867810011 1.554008647097969 283.1918182229668 9.111649867626383
0.0089 6366.273517528003 1.000295425780713 1.553934831839467 283.1221360679796 9.069219468610763
0.009000000000000001 6366.284284883867 1.00029498266283 1.553860966694363 283.0521482548628 9.026778294725124
0.0091 6366.295099296183 1.000294538464203 1.553787051558373 282.9818545748088 8.984327898965329
0.0092 6366.305960797145 1.00029409319268 1.553713086328406 282.9112548185548 8.941869831675904
0.009300000000000001 6366.316869419013 1.000293646856117 1.553639070902509 282.840348776418 8.89940564047788
0.0094 6366.327825194113 1.000293199462377 1.553565005179948 282.7691362382665 8.856936870157595
0.0095 6366.338828154839 1.000292751019329 1.553490889061181 282.6976169935486 8.814465062591147
0.009600000000000001 6366.34987833365 1.00029230153485 1.553416722447801 282.6257908312754 8.771991756640679
0.0097 6366.360975763072 1.000291851016823 1.55334250524264 282.5536575400318 8.729518488068505
0.0098 6366.37212047569 1.000291399473138 1.553268237349644 282.4812169080132 8.687046789465079
0.009900000000000001 6366.383312504156 1.000290946911688 1.553193918674018 282.4084687229887 8.644578190135332
0.01 6366.394551881183 1.000290493340373 1.553119549122103 282.3354127723081 8.60211421600976
0.0101 6366.405838639547 1.000290038767099 1.553045128601465 282.2620488429428 8.559656389576116
0.0102 6366.417172812082 1.000289583199776 1.552970657020853 282.188376721468 8.51720622977675
0.0103 6366.428554431685 1.000289126646319 1.552896134290164 282.1143961940451 8.474765251906431
0.0104 6366.439983531312 1.000288669114646 1.552821560320532 282.0401070464749 8.432334967551137
0.0105 6366.451460143976 1.00028821061268 1.552746935024255 281.9655090641562 8.389916884472614
0.0106 6366.462984302751 1.000287751148349 1.552672258314847 281.8906020321214 8.347512506537248
0.0107 6366.474556040765 1.000287290729581 1.552597530106971 281.8153857350302 8.305123333621397
0.0108 6366.486175391204 1.000286829364311 1.552522750316556 281.739859957176 8.262750861523704
0.0109 6366.49784238731 1.000286367060474 1.55244791886064 281.6640244824856 8.220396581874343
0.011 6366.509557062379 1.000285903826008 1.552373035657533 281.587879094537 8.178061982054361
0.0111 6366.521319449762 1.000285439668854 1.552298100626704 281.5114235765476 8.135748545098751
0.0112 6366.533129582863 1.000284974596955 1.552223113688793 281.4346577113919 8.093457749616277
0.0113 6366.544987495137 1.000284508618254 1.552148074765705 281.3575812816074 8.051191069702865
0.0114 6366.556893220096 1.000284041740698 1.552072983780442 281.280194069377 8.008949974842343
0.0115 6366.568846791296 1.000283573972233 1.551997840657327 281.2024958565761 7.96673592984307
0.0116 6366.580848242349 1.000283105320806 1.551922645321776 281.1244864247313 7.924550394726309
0.0117 6366.592897606914 1.000282635794364 1.551847397700486 281.046165555062 7.882394824660061
0.0118 6366.6049949187 1.000282165400856 1.551772097721248 280.9675330284502 7.840270669854679
0.0119 6366.617140211463 1.000281694148229 1.55169674531313 280.8885886254888 7.79817937550021
0.012 6366.629333519008 1.00028122204443 1.551621340406427 280.8093321264449 7.756122381659558
0.0121 6366.641574875186 1.000280749097406 1.551545882932553 280.7297633112906 7.714101123196845
0.0122 6366.653864313893 1.000280275315102 1.551470372824144 280.6498819596962 7.672117029687112
0.0123 6366.666201869069 1.000279800705462 1.551394810015085 280.5696878510483 7.630171525338842
0.0124 6366.678587574703 1.000279325276427 1.551319194440409 280.489180764432 7.588266028898206
0.0125 6366.691021464821 1.00027884903594 1.551243526036356 280.4083604786605 7.546401953578454
0.0126 6366.703503573498 1.000278371991937 1.551167804740372 280.3272267722631 7.504580706967963
0.0127 6366.716033934847 1.000277894152354 1.55109203049113 280.2457794234914 7.462803690948006
0.0128 6366.728612583023 1.000277415525124 1.551016203228435 280.1640182103487 7.421072301622893
0.0129 6366.741239552224 1.000276936118176 1.550940322893374 280.0819429105426 7.379387929211184
0.013 6366.753914876685 1.000276455939437 1.550864389428165 279.9995533015502 7.337751957994692
0.0131 6366.76663859068 1.000275974996828 1.550788402776256 279.9168491605768 7.296165766213605
0.0132 6366.779410728524 1.000275493298268 1.550712362882271 279.833830264591 7.254630726001038
0.0133 6366.792231324567 1.00027501085167 1.550636269692059 279.7504963903133 7.213148203294065
0.0134 6366.805100413197 1.000274527664944 1.550560123152701 279.6668473142216 7.17171955775418
0.0135 6366.818018028836 1.000274043745994 1.55048392321234 279.5828828125635 7.130346142691054
0.0136 6366.830984205944 1.000273559102719 1.55040766982049 279.4986026613618 7.089029304983747
0.0137 6366.843998979015 1.000273073743013 1.550331362927741 279.4140066364029 7.047770384993703
0.0138 6366.857062382573 1.000272587674763 1.550255002485909 279.3290945132779 7.006570716504203
0.0139 6366.87017445118 1.00027210090585 1.550178588448018 279.24386606733 6.96543162661417
0.014 6366.883335219427 1.00027161344415 1.550102120768289 279.1583210737248 6.92435443569279
0.0141 6366.896544721939 1.000271125297531 1.550025599402092 279.0724593073973 6.883340457274452
0.0142 6366.909802993369 1.000270636473853 1.549949024306059 278.9862805430993 6.842390998002664
0.0143 6366.923110068403 1.000270146980972 1.549872395437972 278.8997845553816 6.801507357543179
0.0144 6366.936465981752 1.000269656826733 1.549795712756776 278.8129711186119 6.760690828514579
0.0145 6366.94987076816 1.000269166018974 1.549718976222692 278.7258400069626 6.719942696405377
0.0146 6366.963324462395 1.000268674565526 1.549642185797045 278.6383909944346 6.679264239508363
0.0147 6366.976827099254 1.000268182474211 1.549565341442378 278.5506238548518 6.638656728841509
0.0148 6366.990378713559 1.000267689752841 1.549488443122453 278.4625383618662 6.598121428075026
0.0149 6367.00397934016 1.00026719640922 1.54941149080213 278.3741342889588 6.557659593456227
0.015 6367.017629013929 1.000266702451141 1.549334484447584 278.2854114094624 6.517272473745734
0.0151 6367.031327769761 1.000266207886391 1.549257424026068 278.1963694965506 6.476961310137962
0.0152 6367.045075642578 1.000265712722743 1.549180309506053 278.1070083232429 6.436727336190357
0.0153 6367.058872667322 1.000265216967961 1.549103140857176 278.0173276624054 6.396571777750554
0.0154 6367.072718878957 1.000264720629801 1.549025918050289 277.9273272867798 6.356495852897305
0.0155 6367.086614312467 1.000264223716003 1.548948641057398 277.8370069689662 6.316500771860748
0.0156 6367.100559002858 1.000263726234302 1.548871309851657 277.7463664814226 6.276587736951373
0.0157 6367.114552985156 1.000263228192416 1.548793924407454 277.6554055964888 6.236757942500006
0.0158 6367.128596294402 1.000262729598054 1.548716484700314 277.5641240863864 6.197012574787832
0.0159 6367.14268896566 1.000262230458914 1.54863899070694 277.4725217232129 6.157352811974572
0.016 6367.156831034007 1.000261730782679 1.548561442405182 277.3805982789535 6.117779824035039
0.0161 6367.171022534539 1.000261230577021 1.548483839774135 277.2883535254986 6.078294772698753
0.0162 6367.185263502366 1.000260729849599 1.548406182793957 277.1957872346205 6.038898811372436
0.0163 6367.199553972616 1.00026022860806 1.548328471446043 277.1028991779971 5.999593085083537
0.0164 6367.213893980427 1.000259726860034 1.548250705712941 277.0096891272232 5.960378730419155
0.0165 6367.228283560954 1.000259224613142 1.548172885578325 276.9161568537992 5.921256875455677
0.0166 6367.242722749364 1.000258721874987 1.548095011027071 276.8223021291368 5.88222863969667
0.0167 6367.257211580833 1.00025821865316 1.548017082045175 276.7281247245827 5.843295134018741
0.0168 6367.271750090555 1.000257714955236 1.547939098619824 276.6336244113949 5.804457460598434
0.0169 6367.286338313728 1.000257210788778 1.547861060739324 276.5388009607663 5.765716712859494
0.017 6367.300976285565 1.00025670616133 1.547782968393145 276.4436541438307 5.727073975413363
0.0171 6367.315664041283 1.000256201080423 1.547704821571932 276.348183731663 5.688530323998002
0.0172 6367.330401616112 1.000255695553572 1.54762662026741 276.2523894952727 5.650086825415114
0.0173 6367.345189045287 1.000255189588275 1.54754836447253 276.1562712056342 5.611744537482359
0.0174 6367.360026364052 1.000254683192016 1.54747005418131 276.0598286336625 5.573504508964898
0.0175 6367.374913607656 1.000254176372261 1.547391689388967 275.9630615502373 5.535367779526666
0.0176 6367.389850811353 1.000253669136459 1.547313270091792 275.8659697262027 5.49733537967288
0.0177 6367.404838010405 1.000253161492042 1.547234796287265 275.7685529323675 5.459408330693355
0.0178 6367.419875240073 1.000252653446426 1.547156267973967 275.6708109395225 5.421587644613503
0.0179 6367.434962535626 1.000252145007009 1.54707768515164 275.5727435184293 5.383874324134552
0.018 6367.450099932333 1.000251636181169 1.546999047821104 275.4743504398374 5.346269362586049
0.0181 6367.465287465466 1.000251126976269 1.546920355984335 275.3756314744727 5.308773743867761
0.0182 6367.480525170297 1.000250617399652 1.546841609644394 275.2765863930671 5.271388442408146
0.0183 6367.495813082102 1.000250107458643 1.546762808805529 275.1772149663346 5.234114423103392
0.0184 6367.511151236154 1.000249597160548 1.546683953473047 275.0775169650013 5.196952641277404
0.0185 6367.526539667723 1.000249086512653 1.546605043653351 274.977492159799 5.159904042629146
0.0186 6367.541978412083 1.000248575522226 1.546526079354011 274.8771403214595 5.122969563180953
0.0187 6367.557467504503 1.000248064196515 1.546447060583644 274.7764612207324 5.086150129236413
0.0188 6367.573006980247 1.000247552542747 1.54636798735201 274.6754546283968 5.049446657336755
0.0189 6367.588596874578 1.00024704056813 1.546288859669942 274.5741203152437 5.012860054207327
0.019 6367.604237222756 1.000246528279852 1.546209677549378 274.4724580520877 4.976391216715778
0.0191 6367.619928060032 1.000246015685079 1.546130441003361 274.3704676097908 4.940041031835192
0.0192 6367.635669421655 1.000245502790957 1.546051150046009 274.2681487592444 4.903810376593197
0.0193 6367.651461342864 1.00024498960461 1.545971804692513 274.1655012713871 4.867700118034662
0.0194 6367.667303858893 1.000244476133142 1.54589240495918 274.0625249171934 4.831711113174793
0.0195 6367.683197004969 1.000243962383635 1.54581295086336 273.9592194677024 4.795844208967622
0.0196 6367.699140816308 1.000243448363148 1.545733442423515 273.8555846939947 4.760100242256739
0.0197 6367.71513532812 1.00024293407872 1.545653879659125 273.751620367222 4.724480039745455
0.0198 6367.731180575602 1.000242419537364 1.545574262590786 273.647326258589 4.688984417951463
0.0199 6367.747276593943 1.000241904746075 1.54549459124015 273.5427021393715 4.653614183174638
0.02 6367.763423418321 1.000241389711823 1.545414865629904 273.4377477809161 4.618370131459616
0.0201 6367.779621083899 1.000240874441553 1.545335085783821 273.3324629546581 4.583253048565218
0.0202 6367.79586962583 1.00024035894219 1.545255251726715 273.2268474321039 4.548263709922902
0.0203 6367.812169079255 1.000239843220634 1.545175363484428 273.1209009848425 4.513402880606106
