#theta R n z T P_w
0 6365.5 1.000321181696795 1.560324351282931 288.15 10.74258886746281
0.0001 6365.506698014227 1.000320885598457 1.560252386279118 288.1064629075221 10.71250894252323
0.0002 6365.513441850028 1.000320587821965 1.560180389243314 288.0626279748157 10.68229800336359
0.0003 6365.520231528012 1.000320288373029 1.560108359989115 288.0184950679212 10.65195732753359
0.0004 6365.527067068906 1.000319987257384 1.560036298331059 287.9740640521107 10.62148819713928
0.0005 6365.533948493558 1.000319684480794 1.55996420408469 287.92933479187 10.59089189875632
0.0006000000000000001 6365.540875822937 1.000319380049051 1.559892077066414 287.8843071509103 10.56016972336325
0.0007 6365.547849078125 1.000319073967974 1.559819917093664 287.8389809921863 10.52932296627846
0.0008 6365.554868280327 1.00031876624341 1.559747723984801 287.7933561778722 10.49835292706844
0.0009000000000000001 6365.561933450865 1.000318456881231 1.559675497559083 287.7474325693796 10.46726090948422
0.001 6365.569044611175 1.000318145887337 1.559603237636885 287.7012100273636 10.43604822138915
0.0011 6365.57620178281 1.000317833267655 1.559530944039319 287.6546884117341 10.40471617469049
0.0012 6365.58340498744 1.000317519028137 1.559458616588601 287.6078675816387 10.37326608525064
0.0013 6365.590654246848 1.000317203174764 1.559386255107843 287.5607473954859 10.34169927282611
0.0014 6365.597949582933 1.000316885713539 1.55931385942114 287.5133277109334 10.31001706098217
0.0015 6365.605291017707 1.000316566650495 1.559241429353483 287.4656083849057 10.27822077702715
0.0016 6365.612678573295 1.000316245991687 1.559168964730873 287.4175892735828 10.24631175192664
0.0017 6365.620112271934 1.000315923743198 1.559096465380245 287.3692702324291 10.21429132024493
0.0018 6365.627592135973 1.000315599911135 1.559023931129504 287.320651116176 10.18216082005472
0.0019 6365.635118187873 1.00031527450163 1.558951361807514 287.2717317788278 10.14992159286229
0.002 6365.642690450205 1.000314947520841 1.558878757244061 287.2225120736674 10.11757498353244
0.0021 6365.650308945651 1.000314618974949 1.558806117269946 287.1729918532686 10.08512234021694
0.0022 6365.657973697002 1.00031428887016 1.558733441716881 287.1231709694897 10.05256501427105
0.0023 6365.665684727156 1.000313957212705 1.558660730417551 287.0730492734855 10.01990436018149
0.0024 6365.673442059122 1.000313624008838 1.558587983205598 287.0226266157073 9.987141735486309
0.0025 6365.681245716016 1.000313289264837 1.558515199915683 286.971902845897 9.954278500690771
0.0026 6365.68909572106 1.000312952987004 1.558442380383337 286.9208778131109 9.921316019202134
0.0027 6365.696992097583 1.000312615181665 1.558369524445133 286.8695513657134 9.88825565724497
0.0028 6365.704934869019 1.000312275855167 1.558296631938606 286.8179233513773 9.855098783780125
0.0029 6365.712924058909 1.000311935013882 1.558223702702195 286.7659936170897 9.821846770427273
0.003 6365.720959690899 1.000311592664203 1.558150736575386 286.7137620091579 9.788500991387224
0.0031 6365.729041788735 1.000311248812547 1.558077733398609 286.661228373221 9.755062823367723
0.0032 6365.73717037627 1.000310903465354 1.558004693013219 286.6083925542442 9.72153364549769
0.0033 6365.74534547746 1.000310556629083 1.557931615261651 286.5552543965131 9.687914839241378
0.0034 6365.753567116359 1.000310208310219 1.557858499987165 286.5018137436685 9.654207788338468
0.0035 6365.761835317126 1.000309858515264 1.557785347034175 286.4480704386777 9.620413878702772
0.0036 6365.770150104022 1.000309507250745 1.557712156247936 286.3940243238575 9.586534498354428
0.0037 6365.778511501405 1.000309154523208 1.557638927474758 286.3396752408684 9.552571037333193
0.0038 6365.786919533734 1.000308800339223 1.557565660561883 286.2850230307266 9.518524887622723
0.0039 6365.795374225569 1.000308444705377 1.557492355357528 286.2300675338041 9.484397443067223
0.004 6365.803875601564 1.00030808762828 1.557419011711032 286.1748085898342 9.450190099291611
0.0041 6365.812423686475 1.000307729114562 1.557345629472527 286.1192460379119 9.41590425361783
0.004200000000000001 6365.821018505154 1.000307369170871 1.557272208493233 286.0633797164995 9.381541304984683
0.0043 6365.829660082548 1.000307007803878 1.557198748625391 286.0072094634387 9.347102653871078
0.0044 6365.838348443702 1.000306645020272 1.557125249722156 285.9507351159385 9.31258970220459
0.004500000000000001 6365.847083613754 1.000306280826761 1.557051711637722 285.8939565105992 9.27800385329162
0.0046 6365.855865617938 1.000305915230072 1.556978134227287 285.8368734834002 9.243346511725681
0.0047 6365.864694481585 1.000305548236953 1.556904517347027 285.7794858697001 9.208619083302844
0.0048 6365.873570230113 1.000305179854168 1.55683086085407 285.7217935042667 9.173822974954902
0.0049 6365.882492889037 1.000304810088502 1.556757164606613 285.6637962212584 9.138959594653707
0.005 6365.891462483964 1.000304438946756 1.55668342846391 285.6054938542369 9.104030351333304
0.0051 6365.900479040592 1.00030406643575 1.556609652286035 285.5468862361548 9.069036654797761
0.005200000000000001 6365.909542584708 1.000303692562321 1.556535835934225 285.4879731993973 9.033979915660669
0.0053 6365.918653142193 1.000303317333326 1.556461979270693 285.4287545757464 8.998861545238585
0.0054 6365.927810739015 1.000302940755635 1.556388082158578 285.3692301964051 8.963682955479696
0.005500000000000001 6365.937015401231 1.000302562836139 1.55631414446217 285.3093998919966 8.928445558878266
0.0056 6365.946267154989 1.000302183581744 1.556240166046597 285.249263492571 8.893150768392497
0.0057 6365.955566026521 1.000301802999372 1.556166146778189 285.1888208276167 8.857799997365683
0.0058 6365.964912042146 1.000301421095962 1.556092086524164 285.1280717260487 8.822394659433488
0.0059 6365.974305228274 1.00030103787847 1.556017985152808 285.0670160162202 8.786936168444996
0.006 6365.983745611396 1.000300653353866 1.555943842533384 285.005653525929 8.751425938380178
0.0061 6365.99323321809 1.000300267529137 1.555869658536216 284.9439840824169 8.715865383263907
0.006200000000000001 6366.002768075018 1.000299880411284 1.555795433032631 284.8820075123821 8.680255917086676
0.0063 6366.012350208928 1.000299492007324 1.555721165894977 284.8197236419668 8.644598953711705
0.0064 6366.021979646649 1.000299102324289 1.555646856996659 284.7571322967814 8.608895906802362
0.006500000000000001 6366.031656415093 1.000298711369224 1.555572506212081 284.6942333018982 8.573148189732509
0.0066 6366.041380541253 1.000298319149191 1.555498113416638 284.6310264818575 8.537357215503665
0.0067 6366.051152052204 1.000297925671264 1.555423678486839 284.5675116606734 8.50152439666206
0.0068 6366.060970975102 1.000297530942531 1.555349201300171 284.503688661834 8.465651145212357
0.006900000000000001 6366.070837337184 1.000297134970093 1.555274681735142 284.4395573083069 8.429738872534681
0.007 6366.080751165763 1.000296737761067 1.555200119671342 284.3751174225398 8.393788989298351
0.0071 6366.090712488233 1.00029633932258 1.555125514989351 284.3103688264836 8.35780290538872
0.007200000000000001 6366.100721332067 1.000295939661773 1.555050867570837 284.245311341563 8.321782029804432
0.0073 6366.110777724813 1.0002955387858 1.554976177298458 284.1799447887123 8.285727770590841
0.0074 6366.120881694096 1.000295136701827 1.554901444055919 284.1142689883749 8.24964153475363
0.007500000000000001 6366.131033267618 1.000294733417031 1.55482666772799 284.0482837604858 8.213524728162794
0.0076 6366.141232473155 1.000294328938602 1.55475184820048 283.9819889244894 8.177378755476237
0.0077 6366.151479338561 1.000293923273741 1.554676985360221 283.9153842993513 8.141205020059992
0.007800000000000001 6366.16177389176 1.000293516429661 1.554602079095125 283.8484697035582 8.105004923902035
0.007900000000000001 6366.172116160751 1.000293108413584 1.554527129294118 283.7812449551178 8.06877986752616
0.008 6366.182506173605 1.000292699232746 1.554452135847202 283.7137098715651 8.032531249909132
0.0081 6366.192943958467 1.000292288894389 1.554377098645396 283.6458642699621 7.996260468394721
0.008200000000000001 6366.203429543552 1.00029187740577 1.5543020175808 283.5777079669095 7.95996891861413
0.0083 6366.213962957146 1.000291464774152 1.554226892546581 283.5092407785531 7.923657994403261
0.008400000000000001 6366.224544227604 1.00029105100681 1.55415172343689 283.4404625205715 7.887329087710693
0.008500000000000001 6366.235173383353 1.000290636111028 1.554076510146987 283.3713730082058 7.850983588527656
0.0086 6366.245850452886 1.000290220094098 1.55400125257322 283.3019720562419 7.814622884793049
0.008700000000000001 6366.256575464765 1.000289802963323 1.553925950612927 283.2322594790284 7.778248362317308
0.008800000000000001 6366.267348447619 1.000289384726012 1.553850604164521 283.1622350904762 7.741861404696984
0.0089 6366.278169430145 1.000288965389485 1.553775213127478 283.091898704059 7.705463393229507
0.009000000000000001 6366.289038441105 1.000288544961068 1.553699777402389 283.0212501328186 7.669055706831137
0.0091 6366.299955509327 1.000288123448096 1.553624296890805 282.9502891893775 7.632639721958057
0.0092 6366.310920663703 1.00028770085791 1.553548771495428 282.8790156859321 7.596216812518439
0.009300000000000001 6366.321933933189 1.000287277197861 1.553473201119959 282.8074294342713 7.559788349796786
0.0094 6366.332995346806 1.000286852475304 1.553397585669208 282.735530245758 7.52335570236032
0.0095 6366.344104933636 1.000286426697603 1.553321925049066 282.6633179313652 7.486920235992562
0.009600000000000001 6366.355262722824 1.000285999872129 1.553246219166386 282.590792301646 7.450483313594083
0.0097 6366.366468743574 1.000285572006255 1.553170467929232 282.5179531667694 7.414046295116319
0.0098 6366.377723025154 1.000285143107365 1.553094671246635 282.4448003365022 7.377610537468677
0.009900000000000001 6366.38902559689 1.000284713182845 1.5530188290287 282.3713336202153 7.341177394437839
0.01 6366.400376488168 1.000284282240089 1.552942941186688 282.297552826907 7.304748216615942
0.0101 6366.411775728433 1.000283850286494 1.552867007632827 282.2234577651856 7.268324351308405
0.0102 6366.423223347187 1.000283417329464 1.552791028280436 282.1490482432868 7.231907142459556
0.0103 6366.434719373989 1.000282983376406 1.552715003043991 282.0743240690739 7.195497930569672
0.0104 6366.446263838457 1.00028254843473 1.55263893183893 281.999285050032 7.159098052609413
0.0105 6366.457856770262 1.000282112511854 1.552562814581832 281.9239309932972 7.122708841951717
0.0106 6366.469498199133 1.000281675615196 1.552486651190283 281.8482617056333 7.086331628278037
0.0107 6366.481188154852 1.00028123775218 1.55241044158303 281.7722769934611 7.049967737510612
0.0108 6366.492926667254 1.000280798930231 1.552334185679867 281.6959766628469 7.01361849172496
0.0109 6366.50471376623 1.00028035915678 1.552257883401598 281.6193605195079 6.977285209071223
0.011 6366.516549481719 1.000279918439257 1.552181534670188 281.5424283688247 6.940969203698518
0.0111 6366.528433843717 1.000279476785096 1.552105139408619 281.4651800158407 6.90467178567393
0.0112 6366.540366882268 1.000279034201735 1.552028697541002 281.3876152652564 6.868394260899045
0.0113 6366.552348627468 1.000278590696611 1.551952208992454 281.309733921459 6.832137931043382
0.0114 6366.564379109462 1.000278146277164 1.551875673689254 281.2315357884989 6.795904093453169
0.0115 6366.576458358445 1.000277700950835 1.551799091558668 281.1530206701071 6.759694041079825
0.0116 6366.58858640466 1.000277254725066 1.551722462529094 281.0741883697073 6.723509062405845
0.0117 6366.600763278398 1.0002768076073 1.551645786530003 280.9950386904155 6.687350441365504
0.0118 6366.612989009996 1.00027635960498 1.551569063491922 280.9155714350289 6.651219457260569
0.0119 6366.625263629838 1.000275910725549 1.5514922933465 280.8357864060548 6.615117384695217
0.012 6366.637587168353 1.000275460976451 1.551415476026408 280.7556834057049 6.579045493495007
0.0121 6366.649959656019 1.000275010365129 1.551338611465423 280.6752622358775 6.543005048621047
0.0122 6366.662381123354 1.000274558899026 1.551261699598389 280.5945226981993 6.506997310111066
0.0123 6366.67485160092 1.000274106585582 1.551184740361252 280.5134645940187 6.471023532999437
0.0124 6366.687371119326 1.000273653432239 1.551107733691009 280.432087724383 6.435084967229853
0.0125 6366.699939709218 1.000273199446435 1.551030679525746 280.350391890085 6.399182857599834
0.0126 6366.712557401287 1.000272744635607 1.550953577804601 280.2683768916339 6.363318443671522
0.0127 6366.725224226266 1.00027228900719 1.550876428467831 280.1860425292729 6.327492959703813
0.0128 6366.737940214924 1.000271832568619 1.550799231456732 280.1033886029908 6.291707634582154
0.0129 6366.750705398074 1.000271375327322 1.550721986713705 280.0204149125165 6.255963691740993
0.013 6366.763519806565 1.000270917290727 1.550644694182199 279.9371212573245 6.220262349091835
0.0131 6366.776383471286 1.00027045846626 1.550567353806765 279.8535074366413 6.184604818951668
0.0132 6366.789296423161 1.00026999886134 1.550489965533011 279.7695732494507 6.148992307971777
0.0133 6366.802258693156 1.000269538483387 1.550412529307628 279.6853184944883 6.113426017061989
0.0134 6366.815270312268 1.000269077339812 1.550335045078392 279.6007429702594 6.077907141325373
0.0135 6366.828331311533 1.000268615438026 1.550257512794101 279.5158464750383 6.042436869985814
0.0136 6366.841441722019 1.000268152785434 1.550179932404691 279.430628806875 6.00701638631852
0.0137 6366.854601574832 1.000267689389436 1.550102303861115 279.3450897635947 5.971646867578535
0.0138 6366.867810901106 1.000267225257427 1.550024627115462 279.2592291428099 5.936329484934603
0.0139 6366.881069732013 1.000266760396797 1.549946902120839 279.1730467419142 5.901065403396157
0.014 6366.894378098756 1.00026629481493 1.549869128831429 279.0865423580884 5.865855781745712
0.0141 6366.907736032567 1.000265828519207 1.549791307202479 278.9997157883125 5.830701772474097
0.0142 6366.921143564712 1.000265361516999 1.549713437190352 278.9125668293713 5.7956045217137
0.0143 6366.934600726486 1.000264893815671 1.549635518752426 278.8250952778425 5.760565169165097
0.0144 6366.948107549211 1.000264425422586 1.549557551847143 278.7373009301267 5.725584848040824
0.0145 6366.961664064242 1.000263956345094 1.549479536434055 278.6491835824294 5.69066468499064
0.0146 6366.97527030296 1.000263486590541 1.549401472473763 278.5607430307608 5.655805800034559
0.0147 6366.988926296773 1.000263016166267 1.549323359927896 278.4719790709777 5.621009306512621
0.0148 6367.002632077116 1.000262545079601 1.549245198759182 278.3828914987474 5.58627631100484
0.0149 6367.016387675451 1.000262073337867 1.549166988931394 278.2934801095661 5.551607913272769
0.015 6367.030193123264 1.000261600948378 1.549088730409394 278.2037446987819 5.517005206203689
0.0151 6367.044048452068 1.000261127918441 1.549010423159047 278.1136850615597 5.482469275732507
0.0152 6367.057953693397 1.000260654255354 1.54893206714731 278.0233009929169 5.448001200791679
0.0153 6367.071908878812 1.000260179966403 1.548853662342222 277.9325922877227 5.413602053247884
0.0154 6367.085914039893 1.00025970505887 1.548775208712804 277.8415587406929 5.379272897837095
0.0155 6367.099969208246 1.000259229540022 1.548696706229193 277.7502001464012 5.34501479210698
0.0156 6367.114074415495 1.00025875341712 1.548618154862569 277.6585162992795 5.310828786355402
0.0157 6367.128229693288 1.000258276697413 1.548539554585125 277.5665069936298 5.276715923573909
0.0158 6367.142435073289 1.000257799388142 1.548460905370159 277.4741720236237 5.242677239387397
0.0159 6367.156690587183 1.000257321496534 1.548382207191969 277.381511183309 5.208713761996563
0.016 6367.170996266677 1.000256843029808 1.548303460025891 277.2885242665974 5.174826512114524
0.0161 6367.185352143493 1.000256363995172 1.548224663848373 277.1952110672941 5.14101650291918
0.0162 6367.19975824937 1.00025588439982 1.548145818636818 277.101571379092 5.107284739993143
0.0163 6367.214214616067 1.000255404250937 1.548066924369717 277.0076049955659 5.073632221264427
0.0164 6367.228721275354 1.000254923555695 1.547987981026612 276.9133117101959 5.040059936958371
0.0165 6367.243278259022 1.000254442321255 1.547908988588039 276.8186913163557 5.006568869537463
0.0166 6367.257885598873 1.000253960554764 1.547829947035606 276.7237436073245 4.973159993650282
0.0167 6367.272543326726 1.000253478263358 1.547750856351934 276.6284683762809 4.939834276074826
0.0168 6367.287251474411 1.000252995454159 1.547671716520675 276.5328654163267 4.906592675672862
0.0169 6367.302010073772 1.000252512134276 1.547592527526499 276.4369345204808 4.873436143334519
0.017 6367.316819156666 1.000252028310807 1.547513289355131 276.3406754816737 4.84036562192366
0.0171 6367.331678754958 1.000251543990832 1.547434001993309 276.2440880927705 4.80738204623414
0.0172 6367.34658890053 1.000251059181422 1.547354665428761 276.147172146554 4.774486342932478
0.0173 6367.36154962527 1.000250573889631 1.547275279650287 276.0499274357475 4.741679430515432
0.0174 6367.376560961075 1.000250088122498 1.547195844647676 275.9523537530152 4.708962219260087
0.0175 6367.391622939854 1.00024960188705 1.547116360411714 275.8544508909507 4.676335611170803
0.0176 6367.406735593522 1.000249115190298 1.547036826934231 275.7562186421059 4.6438004999407
0.0177 6367.421898954004 1.000248628039238 1.546957244208065 275.6576567989736 4.611357770898041
0.0178 6367.43711305323 1.000248140440851 1.546877612227034 275.5587651540053 4.579008300965151
0.0179 6367.452377923137 1.000247652402101 1.546797930985992 275.4595434996112 4.546752958612156
0.018 6367.467693595668 1.00024716392994 1.546718200480761 275.3599916281599 4.514592603811502
0.0181 6367.483060102771 1.000246675031298 1.546638420708223 275.2601093319907 4.482528087997025
0.0182 6367.498477476399 1.000246185713096 1.546558591666176 275.1598964034073 4.45056025401805
0.0183 6367.513945748508 1.000245695982232 1.546478713353475 275.0593526346955 4.418689936101805
0.0184 6367.52946495106 1.000245205845593 1.546398785769935 274.9584778181119 4.386917959807151
0.0185 6367.545035116015 1.000244715310044 1.546318808916373 274.8572717459009 4.355245141988489
0.0186 6367.560656275339 1.000244224382437 1.546238782794598 274.7557342102954 4.323672290754738
0.0187 6367.576328460998 1.000243733069603 1.546158707407381 274.6538650035162 4.292200205429159
0.0188 6367.592051704958 1.00024324137836 1.546078582758496 274.5516639177725 4.260829676509979
0.0189 6367.607826039186 1.000242749315503 1.545998408852677 274.4491307452912 4.229561485640826
0.019 6367.623651495649 1.000242256887814 1.545918185695632 274.3462652782813 4.198396405562006
0.0191 6367.639528106312 1.000241764102053 1.545837913294058 274.2430673089697 4.167335200084323
0.0192 6367.65545590314 1.000241270964963 1.545757591655581 274.1395366295891 4.136378624049207
0.0193 6367.671434918093 1.000240777483268 1.54567722078887 274.0356730323959 4.105527423298588
0.0194 6367.68746518313 1.000240283663675 1.545596800703455 273.9314763096526 4.07478233463497
0.0195 6367.703546730206 1.000239789512869 1.545516331409879 273.8269462536626 4.044144085798111
0.0196 6367.719679591272 1.000239295037518 1.545435812919643 273.7220826567299 4.013613395419837
0.0197 6367.735863798275 1.000238800244268 1.545355245245194 273.6168853112111 3.98319097300747
0.0198 6367.752099383156 1.000238305139748 1.545274628399916 273.511354009487 3.952877518903795
0.0199 6367.768386377848 1.000237809730566 1.54519396239816 273.4054885439854 3.922673724263376
0.02 6367.784724814282 1.00023731402331 1.545113247255161 273.2992887071695 3.892580271019449
0.0201 6367.801114724377 1.000236818024546 1.545032482987183 273.1927542915499 3.862597831858455
0.0202 6367.817556140048 1.000236321740823 1.544951669611347 273.0858850896906 3.832727070193679
0.0203 6367.834049093201 1.000235825178667 1.54487080714572 272.9786808941966 3.802968640134792
