#theta R n z T P_w
0 6365.5 1.000273639275506 1.560324351282931 288.15 0.1705172836105207
0.0001 6365.506698014227 1.000273461938416 1.560241133654543 288.1064629075221 0.1700398244844957
0.0002 6365.513449013707 1.000273283289938 1.560157907972174 288.0625814109043 0.1695597770071383
0.0003 6365.520253003829 1.000273103332054 1.560074674163312 288.0183554751137 0.1690771663476739
0.0004 6365.52710999003 1.000272922066758 1.559991432155823 287.9737850648042 0.1685920177808206
0.0005 6365.534019977797 1.000272739496061 1.55990818187769 287.9288701443223 0.1681043566849476
0.0006000000000000001 6365.540982972662 1.000272555621987 1.559824923257246 287.8836106776952 0.1676142085400336
0.0007 6365.547998980209 1.000272370446574 1.559741656223048 287.8380066286426 0.1671215989258756
0.0008 6365.555068006065 1.000272183971875 1.55965838070387 287.7920579605769 0.1666265535201625
0.0009000000000000001 6365.562190055908 1.000271996199956 1.559575096628713 287.7457646365973 0.1661290980964777
0.001 6365.56936513546 1.000271807132897 1.559491803926921 287.6991266195072 0.1656292585225506
0.0011 6365.576593250494 1.000271616772794 1.559408502527938 287.6521438717908 0.1651270607580565
0.0012 6365.583874406826 1.000271425121755 1.559325192361483 287.604816355631 0.1646225308528554
0.0013 6365.591208610323 1.000271232181902 1.559241873357538 287.557144032903 0.1641156949449712
0.0014 6365.598595866893 1.000271037955373 1.559158545446285 287.5091268651926 0.1636065792588163
0.0015 6365.606036182498 1.000270842444319 1.55907520855806 287.4607648137661 0.1630952101029083
0.0016 6365.61352956314 1.000270645650904 1.55899186262349 287.4120578395886 0.1625816138680849
0.0017 6365.621076014871 1.000270447577307 1.558908507573385 287.3630059033411 0.1620658170257104
0.0018 6365.628675543787 1.00027024822572 1.55882514333876 287.3136089653857 0.1615478461253167
0.0019 6365.636328156033 1.00027004759835 1.558741769850819 287.2638669857887 0.1610277277928641
0.002 6365.644033857796 1.000269845697417 1.558658387041002 287.2137799243268 0.1605054887288073
0.0021 6365.651792655312 1.000269642525155 1.558574994840936 287.1633477404752 0.1599811557059728
0.0022 6365.65960455486 1.000269438083813 1.558491593182386 287.1125703934075 0.1594547555675562
0.0023 6365.667469562768 1.000269232375652 1.558408181997415 287.0614478420079 0.1589263152252375
0.0024 6365.675387685406 1.000269025402947 1.558324761218225 287.0099800448587 0.1583958616570469
0.0025 6365.683358929191 1.000268817167989 1.558241330777171 286.9581669602588 0.1578634219055327
0.0026 6365.691383300586 1.00026860767308 1.558157890606817 286.9060085461937 0.1573290230754377
0.0027 6365.699460806096 1.000268396920537 1.558074440639965 286.8535047603767 0.1567926923321027
0.0028 6365.707591452275 1.000268184912689 1.557990980809529 286.8006555602141 0.1562544568990759
0.0029 6365.715775245717 1.000267971651882 1.557907511048652 286.7474609028399 0.1557143440564467
0.003 6365.724012193065 1.000267757140473 1.557824031290638 286.6939207450749 0.1551723811383917
0.0031 6365.732302301007 1.000267541380833 1.557740541468919 286.6400350434564 0.1546285955314423
0.0032 6365.74064557627 1.000267324375346 1.557657041517173 286.5858037542433 0.1540830146725048
0.0033 6365.749042025633 1.000267106126412 1.55757353136925 286.5312268333877 0.1535356660465238
0.0034 6365.757491655912 1.000266886636441 1.557490010959118 286.4763042365693 0.1529865771847967
0.0035 6365.765994473973 1.000266665907861 1.55740648022094 286.4210359191783 0.1524357756627511
0.0036 6365.774550486722 1.000266443943107 1.557322939089084 286.3654218363093 0.1518832890978398
0.0037 6365.783159701109 1.000266220744634 1.557239387498029 286.309461942791 0.1513291451477879
0.0038 6365.791822124132 1.000265996314907 1.557155825382443 286.2531561931445 0.1507733715081317
0.0039 6365.800537762829 1.000265770656405 1.557072252677184 286.1965045416131 0.1502159959104628
0.004 6365.809306624283 1.00026554377162 1.556988669317217 286.1395069421623 0.1496570461203746
0.0041 6365.818128715619 1.000265315663057 1.556905075237736 286.0821633484737 0.1490965499353517
0.004200000000000001 6365.827004044009 1.000265086333235 1.556821470374044 286.0244737139395 0.1485345351826583
0.0043 6365.835932616666 1.000264855784688 1.556737854661621 285.9664379916738 0.1479710297174001
0.0044 6365.844914440844 1.000264624019959 1.556654228036105 285.908056134513 0.1474060614204692
0.004500000000000001 6365.853949523845 1.000264391041608 1.556570590433309 285.8493280950096 0.1468396581964315
0.0046 6365.863037873009 1.000264156852205 1.556486941789189 285.7902538254383 0.1462718479715291
0.0047 6365.872179495724 1.000263921454337 1.556403282039836 285.730833277796 0.145702658691625
0.0048 6365.881374399417 1.000263684850601 1.556319611121545 285.67106640379 0.1451321183200358
0.0049 6365.890622591559 1.000263447043608 1.556235928970724 285.6109531548672 0.14456025483576
0.005 6365.899924079664 1.000263208035982 1.556152235523929 285.5504934821851 0.1439870962311414
0.0051 6365.909278871289 1.00026296783036 1.556068530717938 285.4896873366232 0.143412670509931
0.005200000000000001 6365.918686974032 1.000262726429393 1.555984814489576 285.4285346687892 0.1428370056852899
0.0053 6365.928148395536 1.000262483835743 1.555901086775899 285.3670354290188 0.142260129777739
0.0054 6365.937663143482 1.000262240052086 1.555817347514077 285.3051895673697 0.1416820708130536
0.005500000000000001 6365.947231225597 1.000261995081111 1.555733596641471 285.2429970336219 0.1411028568202166
0.0056 6365.956852649648 1.00026174892552 1.555649834095547 285.1804577772895 0.140522515829483
0.0057 6365.966527423444 1.000261501588028 1.555566059813919 285.1175717476143 0.1399410758702797
0.0058 6365.976255554839 1.000261253071361 1.555482273734411 285.0543388935488 0.1393585649690006
0.0059 6365.986037051724 1.00026100337826 1.555398475794902 284.990759163791 0.1387750111472954
0.006 6365.995871922037 1.000260752511477 1.555314665933478 284.9268325067613 0.1381904424198131
0.0061 6366.005760173753 1.000260500473779 1.555230844088385 284.862558870608 0.1376048867922229
0.006200000000000001 6366.015701814889 1.000260247267942 1.555147010197986 284.7979382032194 0.1370183722592898
0.0063 6366.025696853508 1.000259992896759 1.555063164200763 284.7329704521998 0.1364309268026312
0.0064 6366.035745297708 1.000259737363033 1.554979306035394 284.6676555648995 0.1358425783889592
0.006500000000000001 6366.045847155634 1.00025948066958 1.554895435640684 284.6019934883792 0.1352533549677393
0.0066 6366.056002435467 1.000259222819228 1.554811552955583 284.5359841694629 0.1346632844696495
0.0067 6366.066211145434 1.000258963814817 1.554727657919195 284.4696275546793 0.1340723948040354
0.0068 6366.0764732938 1.000258703659203 1.554643750470738 284.4029235903025 0.1334807138572708
0.006900000000000001 6366.086788888871 1.000258442355251 1.554559830549611 284.335872222341 0.1328882694906441
0.007 6366.097157938995 1.000258179905838 1.554475898095334 284.268473396531 0.1322950895383047
0.0071 6366.10758045256 1.000257916313857 1.554391953047565 284.2007270583607 0.1317012018054728
0.007200000000000001 6366.118056437994 1.000257651582209 1.554307995346114 284.1326331530403 0.1311066340661859
0.0073 6366.128585903767 1.000257385713811 1.554224024930969 284.0641916255139 0.1305114140614153
0.0074 6366.139168858389 1.00025711871159 1.554140041742181 283.9954024204716 0.1299155694971854
0.007500000000000001 6366.14980531041 1.000256850578485 1.554056045720021 283.9262654823373 0.129319128042492
0.0076 6366.160495268419 1.00025658131745 1.553972036804884 283.8567807552748 0.1287221173273813
0.0077 6366.171238741049 1.000256310931448 1.553888014937245 283.7869481831821 0.1281245649409312
0.007800000000000001 6366.182035736969 1.000256039423455 1.553803980057809 283.7167677097026 0.1275264984293915
0.007900000000000001 6366.192886264889 1.00025576679646 1.553719932107363 283.6462392782199 0.126927945294177
0.008 6366.203790333562 1.000255493053464 1.553635871026856 283.5753628318456 0.1263289329898181
0.0081 6366.214747951778 1.000255218197479 1.553551796757413 283.5041383134429 0.1257294889222185
0.008200000000000001 6366.225759128366 1.00025494223153 1.553467709240225 283.4325656656209 0.1251296404466665
0.0083 6366.236823872197 1.000254665158653 1.553383608416682 283.3606448307227 0.1245294148658063
0.008400000000000001 6366.24794219218 1.000254386981896 1.553299494228289 283.2883757508311 0.1239288394277644
0.008500000000000001 6366.259114097264 1.00025410770432 1.553215366616708 283.2157583677866 0.1233279413243804
0.0086 6366.270339596437 1.000253827328997 1.553131225523739 283.142792623158 0.1227267476890516
0.008700000000000001 6366.281618698727 1.000253545859011 1.55304707089132 283.0694784582714 0.1221252855950765
0.008800000000000001 6366.292951413202 1.000253263297457 1.552962902661537 282.995815814187 0.1215235820535645
0.0089 6366.304337748967 1.000252979647443 1.552878720776582 282.9218046317168 0.1209216640116952
0.009000000000000001 6366.315777715167 1.000252694912089 1.552794525178828 282.8474448514124 0.1203195583507427
0.0091 6366.327271320987 1.000252409094524 1.552710315810806 282.7727364135834 0.1197172918843483
0.0092 6366.338818575649 1.000252122197891 1.552626092615126 282.697679258279 0.1191148913565136
0.009300000000000001 6366.350419488415 1.000251834225345 1.552541855534575 282.6222733253002 0.1185123834398419
0.0094 6366.362074068586 1.00025154518005 1.552457604512097 282.5465185541938 0.1179097947336442
0.0095 6366.3737823255 1.000251255065184 1.552373339490725 282.4704148842524 0.1173071517621025
0.009600000000000001 6366.385544268534 1.000250963883936 1.552289060413685 282.3939622545262 0.1167044809725352
0.0097 6366.397359907108 1.000250671639505 1.552204767224319 282.3171606037994 0.1161018087333907
0.0098 6366.409229250672 1.000250378335102 1.552120459866119 282.2400098706315 0.115499161332763
0.009900000000000001 6366.421152308722 1.000250083973951 1.552036138282717 282.1625099933102 0.1148965649762192
0.01 6366.433129090787 1.000249788559285 1.55195180241788 282.0846609098866 0.1142940457852866
0.0101 6366.445159606435 1.00024949209435 1.551867452215523 282.0064625581693 0.1136916297956231
0.0102 6366.457243865275 1.000249194582402 1.551783087619699 281.9279148757131 0.1130893429551547
0.0103 6366.46938187695 1.000248896026708 1.551698708574607 281.8490177998241 0.1124872111223594
0.0104 6366.481573651145 1.000248596430549 1.551614315024575 281.7697712675603 0.1118852600645165
0.0105 6366.493819197578 1.000248295797213 1.551529906914086 281.6901752157431 0.1112835154560548
0.0106 6366.506118526008 1.000247994130002 1.551445484187769 281.6102295809459 0.1106820028767317
0.0107 6366.518471646231 1.000247691432228 1.551361046790379 281.5299342994994 0.1100807478099576
0.0108 6366.53087856808 1.000247387707214 1.551276594666806 281.4492893074802 0.1094797756409993
0.0109 6366.543339301425 1.000247082958294 1.551192127762095 281.3682945407344 0.1088791116554578
0.011 6366.555853856175 1.000246777188814 1.551107646021463 281.2869499348598 0.1082787810374491
0.0111 6366.568422242274 1.000246470402129 1.551023149390209 281.2052554252176 0.1076788088680157
0.0112 6366.581044469705 1.000246162601606 1.550938637813826 281.123210946915 0.1070792201233323
0.0113 6366.593720548486 1.000245853790622 1.550854111237932 281.0408164348404 0.1064800396733128
0.0114 6366.606450488674 1.000245543972567 1.550769569608267 280.9580718236219 0.1058812922796666
0.0115 6366.61923430036 1.000245233150838 1.55068501287073 280.8749770476574 0.1052830025944855
0.0116 6366.632071993678 1.000244921328846 1.550600440971409 280.791532041096 0.1046851951584985
0.0117 6366.644963578789 1.000244608510011 1.550515853856431 280.7077367378687 0.1040878943996791
0.0118 6366.657909065901 1.000244294697764 1.550431251472162 280.6235910716458 0.1034911246313565
0.0119 6366.67090846525 1.000243979895546 1.550346633765059 280.5390949758734 0.1028949100508894
0.012 6366.683961787115 1.00024366410681 1.550262000681742 280.4542483837548 0.1022992747379726
0.0121 6366.697069041805 1.000243347335019 1.550177352168994 280.3690512282691 0.1017042426532073
0.0122 6366.710230239671 1.000243029583644 1.550092688173686 280.2835034421408 0.1011098376363526
0.0123 6366.723445391097 1.00024271085617 1.550008008642884 280.1976049578701 0.1005160834050045
0.0124 6366.736714506503 1.00024239115609 1.549923313523791 280.1113557077323 0.09992300355307918
0.0125 6366.750037596346 1.000242070486908 1.549838602763725 280.0247556237485 0.09933062154910761
0.0126 6366.76341467112 1.000241748852139 1.549753876310186 279.9378046377213 0.09873896073499219
0.0127 6366.776845741351 1.000241426255306 1.549669134110784 279.8505026812167 0.09814804432440979
0.0128 6366.790330817606 1.000241102699945 1.549584376113308 279.762849685564 0.09755789540135182
0.0129 6366.803869910481 1.000240778189601 1.549499602265672 279.6748455818741 0.09696853691879675
0.013 6366.817463030614 1.000240452727828 1.549414812515919 279.5864903010096 0.09637999169707896
0.0131 6366.831110188675 1.000240126318191 1.549330006812277 279.4977837736141 0.09579228242266852
0.0132 6366.84481139537 1.000239798964266 1.549245185103111 279.4087259300949 0.0952054316466486
0.0133 6366.858566661439 1.000239470669636 1.549160347336895 279.3193167006465 0.09461946178348157
0.0134 6366.87237599766 1.000239141437898 1.5490754934623 279.2295560152091 0.09403439510936211
0.0135 6366.886239414845 1.000238811272656 1.548990623428095 279.1394438035103 0.09345025376112893
0.0136 6366.900156923838 1.000238480177524 1.548905737183244 279.0489799950527 0.09286705973484061
0.0137 6366.914128535522 1.000238148156127 1.548820834676807 278.9581645191087 0.09228483488440681
0.0138 6366.928154260812 1.000237815212098 1.548735915858039 278.8669973047198 0.09170360092027369
0.0139 6366.94223411066 1.000237481349083 1.548650980676318 278.7754782807091 0.09112337940819908
0.014 6366.956368096052 1.000237146570734 1.548566029081144 278.683607375663 0.09054419176785508
0.0141 6366.970556228006 1.000236810880714 1.548481061022229 278.591384517961 0.08996605927174545
0.0142 6366.984798517577 1.000236474282695 1.548396076449385 278.4988096357464 0.08938900304376506
0.0143 6366.999094975856 1.000236136780362 1.548311075312569 278.4058826569375 0.08881304405803701
0.0144 6367.013445613963 1.000235798377404 1.548226057561922 278.3126035092399 0.08823820313776334
0.0145 6367.027850443057 1.000235459077523 1.548141023147703 278.2189721201288 0.08766450095390857
0.0146 6367.042309474329 1.000235118884429 1.548055972020314 278.1249884168604 0.08709195802408266
0.0147 6367.056822719004 1.000234777801843 1.547970904130333 278.0306523264725 0.08652059471136644
0.0148 6367.071390188341 1.000234435833494 1.547885819428483 277.9359637757838 0.08595043122315323
0.0149 6367.086011893633 1.000234092983119 1.54780071786562 277.8409226913885 0.08538148760997172
0.015 6367.100687846206 1.000233749254467 1.547715599392754 277.7455289996623 0.08481378376439691
0.0151 6367.115418057421 1.000233404651294 1.547630463961059 277.6497826267617 0.08424733941994139
0.0152 6367.130202538672 1.000233059177367 1.547545311521842 277.5536834986309 0.08368217414999836
0.0153 6367.145041301384 1.00023271283646 1.547460142026563 277.4572315410009 0.08311830736676538
0.0154 6367.159934357021 1.000232365632357 1.547374955426852 277.3604266793662 0.08255575832004867
0.0155 6367.174881717073 1.000232017568852 1.547289751674461 277.2632688390266 0.08199454609646337
0.0156 6367.189883393069 1.000231668649746 1.547204530721303 277.165757945051 0.08143468961820273
0.0157 6367.204939396569 1.00023131887885 1.547119292519447 277.0678939223016 0.0808762076421682
0.0158 6367.220049739165 1.000230968259984 1.547034037021121 276.9696766954274 0.08031911875894479
0.0159 6367.235214432483 1.000230616796976 1.546948764178691 276.8711061888592 0.07976344139179514
0.016 6367.250433488181 1.000230264493664 1.546863473944664 276.7721823268206 0.07920919379577131
0.0161 6367.265706917952 1.000229911353893 1.54677816627174 276.6729050333105 0.07865639405667767
0.0162 6367.281034733518 1.000229557381518 1.546692841112727 276.5732742321328 0.07810506009031627
0.0163 6367.296416946636 1.000229202580403 1.546607498420613 276.4732898468668 0.07755520964141935
0.0164 6367.311853569093 1.000228846954418 1.546522138148527 276.3729518008967 0.07700686028292826
0.0165 6367.327344612711 1.000228490507445 1.546436760249746 276.272260017376 0.07646002941493203
0.0166 6367.342890089344 1.000228133243372 1.546351364677726 276.1712144192633 0.07591473426401281
0.0167 6367.358490010876 1.000227775166096 1.546265951386039 276.0698149293042 0.07537099188231777
0.0168 6367.374144389225 1.000227416279523 1.546180520328446 275.9680614700377 0.0748288191467785
0.0169 6367.38985323634 1.000227056587566 1.546095071458839 275.8659539637896 0.07428823275828472
0.017 6367.405616564202 1.000226696094149 1.546009604731259 275.7634923326849 0.07374924924097084
0.0171 6367.421434384823 1.000226334803201 1.545924120099933 275.6606764986476 0.07321188494145661
0.0172 6367.43730671025 1.00022597271866 1.54583861751921 275.557506383377 0.072676156027984
0.0173 6367.453233552555 1.000225609844474 1.545753096943621 275.4539819083951 0.0721420784899419
0.0174 6367.469214923846 1.000225246184597 1.545667558327823 275.3501029949992 0.07160966813691701
0.0175 6367.485250836264 1.000224881742992 1.545582001626661 275.2458695642857 0.07107894059813237
0.0176 6367.501341301977 1.000224516523631 1.545496426795091 275.1412815371499 0.07054991132178104
0.0177 6367.517486333188 1.00022415053049 1.545410833788288 275.0363388342802 0.07002259557434866
0.0178 6367.533685942127 1.000223783767558 1.545325222561513 274.9310413761758 0.06949700844007357
0.0179 6367.549940141057 1.000223416238829 1.545239593070242 274.8253890831292 0.06897316482024717
0.018 6367.566248942274 1.000223047948305 1.545153945270057 274.7193818752197 0.06845107943259435
0.0181 6367.582612358101 1.000222678899996 1.545068279116749 274.6130196723437 0.06793076681084737
0.0182 6367.599030400894 1.00022230909792 1.544982594566231 274.5063023941906 0.06741224130407475
0.0183 6367.615503083039 1.000221938546102 1.54489689157456 274.3992299602486 0.06689551707617643
0.0184 6367.632030416951 1.000221567248576 1.544811170098001 274.2918022898169 0.06638060810542463
0.0185 6367.648612415079 1.000221195209381 1.544725430092941 274.1840193019879 0.06586752818388165
0.0186 6367.665249089899 1.000220822432565 1.544639671515933 274.0758809156586 0.06535629091697914
0.0187 6367.681940453918 1.000220448922185 1.544553894323673 273.9673870495311 0.06484690972305918
0.0188 6367.698686519673 1.000220074682303 1.544468098473039 273.8585376221243 0.06433939783298927
0.0189 6367.715487299733 1.00021969971699 1.544382283921038 273.7493325517383 0.06383376828957618
0.019 6367.732342806693 1.000219324030322 1.544296450624895 273.6397717564959 0.06333003394735791
0.0191 6367.749253053182 1.000218947626384 1.544210598541924 273.5298551543186 0.06282820747211106
0.0192 6367.766218051856 1.000218570509269 1.544124727629633 273.4195826629392 0.06232830134054243
0.0193 6367.783237815401 1.000218192683076 1.544038837845681 273.3089541998951 0.06183032783991783
0.0194 6367.800312356533 1.00021781415191 1.543952929147909 273.1979696825346 0.06133429906776427
0.0195 6367.817441687997 1.000217434919885 1.543867001494279 273.0866290280168 0.06084022693156402
0.0196 6367.834625822568 1.000217054991121 1.543781054842937 272.9749321533058 0.06034812314844219
0.0197 6367.85186477305 1.000216674369746 1.543695089152195 272.8628789751764 0.05985799924492628
0.0198 6367.869158552275 1.000216293059893 1.543609104380515 272.7504694102144 0.05936986655669835
0.0199 6367.886507173104 1.000215911065704 1.543523100486515 272.6377033748221 0.05888373622839211
0.02 6367.90391064843 1.000215528391325 1.543437077428988 272.5245807852069 0.05839961921333241
