#theta R n z T P_w
0 6365.5 1.000338818401467 1.560324351282931 288.15 14.66448639050478
0.0001 6365.506698014227 1.000338478246537 1.56025656342317 288.1064629075221 14.62342490566663
0.0002 6365.513439190763 1.000338136341876 1.560188734595843 288.0626452600394 14.58220081797149
0.0003 6365.520223555889 1.00033779269402 1.56012086458607 288.0185468867211 14.54081571528044
0.0004 6365.527051136022 1.000337447309535 1.560052953180072 287.9741676158554 14.49927119084211
0.0005 6365.53392195772 1.000337100195013 1.559985000165198 287.9295072748204 14.45756884318251
0.0006000000000000001 6365.540836047674 1.000336751357081 1.559917005329851 287.8845656901188 14.41571027605534
0.0007 6365.547793432715 1.000336400802393 1.559848968463627 287.8393426873553 14.3736970983367
0.0008 6365.554794139804 1.000336048537631 1.559780889357072 287.7938380912709 14.33153092397435
0.0009000000000000001 6365.561838196044 1.00033569456951 1.559712767801959 287.7480517257144 14.28921337187623
0.001 6365.568925628666 1.00033533890477 1.559644603591148 287.7019834136712 14.24674606585341
0.0011 6365.576056465038 1.000334981550182 1.559576396518541 287.6556329772519 14.20413063452428
0.0012 6365.58323073266 1.000334622512546 1.559508146379198 287.6090002377099 14.16136871124568
0.0013 6365.590448459162 1.000334261798688 1.559439852969327 287.5620850154472 14.11846193403261
0.0014 6365.597709672309 1.000333899415465 1.559371516086134 287.5148871299911 14.07541194545062
0.0015 6365.605014399994 1.000333535369761 1.559303135528047 287.4674064000409 14.03222039257263
0.0016 6365.612362670239 1.000333169668486 1.55923471109457 287.4196426434449 13.98888892687051
0.0017 6365.619754511198 1.000332802318581 1.55916624258631 287.371595677212 13.94541920413873
0.0018 6365.627189951152 1.000332433327011 1.559097729805002 287.3232653175113 13.90181288440679
0.0019 6365.63466901851 1.000332062700771 1.559029172553494 287.2746513796845 13.85807163186213
0.002 6365.642191741807 1.000331690446881 1.558960570635784 287.2257536782516 13.81419711476705
0.0021 6365.649758149707 1.000331316572389 1.558891923856973 287.1765720269049 13.77019100536487
0.0022 6365.657368270998 1.000330941084369 1.55882323202327 287.1271062385148 13.72605497979625
0.0023 6365.665022134592 1.00033056398992 1.558754494942112 287.0773561251539 13.68179071803105
0.0024 6365.672719769526 1.000330185296169 1.558685712421885 287.0273214980788 13.63739990376269
0.0025 6365.680461204964 1.00032980501027 1.55861688427228 286.9770021677363 13.59288422432357
0.0026 6365.688246470187 1.0003294231394 1.558548010304046 286.9263979437868 13.54824537061559
0.0027 6365.6960755946 1.000329039690761 1.55847909032911 286.8755086350988 13.5034850370142
0.0028 6365.703948607732 1.000328654671584 1.558410124160499 286.8243340497423 13.45860492127213
0.0029 6365.71186553923 1.000328268089122 1.558341111612396 286.7728739950074 13.41360672444369
0.003 6365.71982641886 1.000327879950654 1.558272052500142 286.7211282774095 13.36849215079825
0.0031 6365.727831276511 1.000327490263482 1.558202946640184 286.6690967026778 13.32326290771785
0.0032 6365.735880142188 1.000327099034934 1.558133793850193 286.6167790757789 13.27792070562561
0.0033 6365.743973046014 1.000326706272363 1.558064593948939 286.5641752009109 13.23246725788785
0.0034 6365.752110018228 1.000326311983143 1.557995346756324 286.5112848815151 13.18690428073143
0.0035 6365.760291089188 1.000325916174673 1.557926052093527 286.4581079202761 13.14123349315047
0.0036 6365.768516289366 1.000325518854377 1.557856709782721 286.4046441191221 13.09545661681288
0.0037 6365.776785649347 1.000325120029699 1.557787319647376 286.3508932792419 13.04957537598165
0.0038 6365.785099199834 1.00032471970811 1.557717881512055 286.2968552010797 13.00359149741576
0.0039 6365.793456971639 1.000324317897099 1.557648395202523 286.2425296843466 12.95750671028573
0.004 6365.80185899569 1.000323914604182 1.557578860545692 286.1879165280146 12.91132274607402
0.0041 6365.810305303026 1.000323509836894 1.557509277369662 286.1330155303289 12.86504133849005
0.004200000000000001 6365.818795924797 1.000323103602794 1.557439645503721 286.0778264888189 12.81866422338499
0.0043 6365.827330892263 1.000322695909461 1.557369964778305 286.0223492002873 12.77219313864624
0.0044 6365.835910236794 1.000322286764497 1.557300235024998 285.9665834608389 12.7256298241265
0.004500000000000001 6365.844533989868 1.000321876175525 1.557230456076698 285.9105290658575 12.67897602152792
0.0046 6365.853202183072 1.000321464150188 1.557160627767354 285.8541858100292 12.63223347432564
0.0047 6365.861914848102 1.000321050696151 1.557090749932167 285.7975534873366 12.58540392766631
0.0048 6365.870672016758 1.000320635821098 1.557020822407507 285.7406318910706 12.53848912828122
0.0049 6365.879473720946 1.000320219532736 1.556950845030973 285.6834208138483 12.49149082440382
0.005 6365.888319992679 1.00031980183879 1.556880817641296 285.6259200475832 12.44441076564818
0.0051 6365.897210864076 1.000319382747004 1.556810740078429 285.568129383509 12.39725070293114
0.005200000000000001 6365.906146367352 1.000318962265143 1.556740612183586 285.5100486122091 12.35001238839867
0.0053 6365.915126534834 1.000318540400992 1.556670433799136 285.451677523581 12.302697575299
0.0054 6365.924151398945 1.000318117162352 1.556600204768627 285.3930159068603 12.25530801790388
0.005500000000000001 6365.933220992211 1.000317692557045 1.556529924936867 285.3340635506264 12.20784547141505
0.0056 6365.942335347262 1.000317266592912 1.556459594149816 285.2748202427964 12.160311691861
0.0057 6365.951494496822 1.00031683927781 1.55638921225472 285.215285770655 12.11270843602206
0.0058 6365.960698473719 1.000316410619617 1.556318779100004 285.1554599208247 12.06503746130779
0.0059 6365.969947310876 1.000315980626225 1.556248294535288 285.0953424793073 12.01730052569109
0.006 6365.979241041314 1.000315549305546 1.556177758411453 285.0349332314603 11.96949938759002
0.0061 6365.988579698153 1.000315116665508 1.556107170580588 284.9742319620085 11.92163580577793
0.006200000000000001 6365.997963314607 1.000314682714057 1.556036530896016 284.9132384550561 11.87371153929327
0.0063 6366.007391923985 1.000314247459155 1.555965839212261 284.8519524940983 11.82572834734913
0.0064 6366.016865559692 1.000313810908779 1.555895095385096 284.7903738620038 11.77768798921944
0.006500000000000001 6366.026384255225 1.000313373070925 1.555824299271539 284.7285023410381 11.72959222415757
0.0066 6366.035948044175 1.000312933953603 1.555753450729829 284.6663377128638 11.68144281129614
0.0067 6366.045556960225 1.000312493564837 1.555682549619426 284.6038797585346 11.6332415095422
0.0068 6366.055211037149 1.00031205191267 1.555611595801064 284.5411282585309 11.5849900775043
0.006900000000000001 6366.064910308811 1.000311609005156 1.555540589136694 284.4780829927298 11.53669027336906
0.007 6366.074654809166 1.000311164850367 1.555469529489552 284.4147437404234 11.48834385481439
0.0071 6366.084444572255 1.000310719456387 1.555398416724062 284.3511102803421 11.4399525789267
0.007200000000000001 6366.094279632212 1.000310272831315 1.555327250705939 284.2871823906193 11.39151820207307
0.0073 6366.104160023255 1.000309824983265 1.5552560313021 284.2229598488442 11.34304247984082
0.0074 6366.114085779688 1.000309375920363 1.555184758380791 284.1584424320271 11.29452716690959
0.007500000000000001 6366.124056935904 1.000308925650748 1.555113431811427 284.0936299166223 11.24597401696813
0.0076 6366.134073526378 1.000308474182574 1.555042051464774 284.0285220785403 11.19738478262206
0.0077 6366.144135585671 1.000308021524006 1.55497061721279 283.9631186931359 11.14876121528373
0.007800000000000001 6366.154243148426 1.000307567683222 1.554899128928706 283.897419535232 11.1001050650886
0.007900000000000001 6366.164396249369 1.000307112668412 1.554827586487003 283.8314243791013 11.05141808078073
0.008 6366.17459492331 1.000306656487777 1.554755989763501 283.765132998485 11.00270200962466
0.0081 6366.184839205136 1.000306199149531 1.554684338635218 283.6985451666154 10.95395859732128
0.008200000000000001 6366.195129129818 1.0003057406619 1.554612632980408 283.6316606561812 10.90518958788038
0.0083 6366.205464732405 1.000305281033119 1.554540872678711 283.5644792393686 10.85639672354954
0.008400000000000001 6366.215846048022 1.000304820271433 1.55446905761094 283.4970006878551 10.80758174470819
0.008500000000000001 6366.226273111876 1.0003043583851 1.554397187659252 283.4292247728043 10.75874638976192
0.0086 6366.23674595925 1.000303895382386 1.554325262707011 283.3611512648771 10.70989239504958
0.008700000000000001 6366.2472646255 1.000303431271569 1.554253282638919 283.2927799342496 10.66102149475451
0.008800000000000001 6366.257829146061 1.000302966060933 1.554181247340943 283.2241105506013 10.6121354207946
0.0089 6366.268439556443 1.000302499758775 1.554109156700306 283.1551428831211 10.56323590272511
0.009000000000000001 6366.279095892226 1.0003020323734 1.554037010605509 283.085876700531 10.51432466765402
0.0091 6366.289798189066 1.000301563913117 1.553964808946455 283.0163117710739 10.46540344013228
0.0092 6366.300546482689 1.000301094386251 1.553892551614162 282.9464478625199 10.41647394205664
0.009300000000000001 6366.311340808895 1.000300623801128 1.553820238501061 282.8762847421839 10.36753789258078
0.0094 6366.322181203551 1.000300152166087 1.553747869500812 282.8058221769196 10.31859700800996
0.0095 6366.333067702597 1.000299679489471 1.553675444508384 282.7350599331197 10.26965300169991
0.009600000000000001 6366.34400034204 1.000299205779632 1.553602963420065 282.6639977767394 10.22070758397209
0.0097 6366.354979157957 1.000298731044927 1.553530426133396 282.5926354732786 10.17176246200053
0.0098 6366.36600418649 1.00029825529372 1.553457832547243 282.5209727878176 10.12281933973521
0.009900000000000001 6366.377075463847 1.000297778534382 1.553385182561754 282.4490094849933 10.07387991778504
0.01 6366.388193026305 1.00029730077529 1.553312476078378 282.3767453290169 10.0249458933293
0.0101 6366.399356910202 1.000296822024825 1.553239712999877 282.3041800836858 9.976018960025044
0.0102 6366.410567151944 1.000296342291376 1.553166893230291 282.2313135123658 9.927100807894657
0.0103 6366.421823787995 1.000295861583332 1.553094016675008 282.1581453780326 9.878193123253379
0.0104 6366.433126854886 1.000295379909092 1.553021083240662 282.0846754432422 9.829297588589196
0.0105 6366.444476389206 1.000294897277056 1.55294809283524 282.0109034701603 9.780415882482588
0.0106 6366.455872427608 1.000294413695629 1.552875045367985 281.9368292205507 9.731549679498727
0.0107 6366.467315006802 1.00029392917322 1.552801940749513 281.8624524557871 9.682700650095621
0.0108 6366.478804163557 1.00029344371824 1.552728778891671 281.7877729368764 9.633870460540029
0.0109 6366.490339934704 1.000292957339106 1.552655559707688 281.7127904244238 9.58506077278482
0.011 6366.501922357126 1.000292470044233 1.552582283112054 281.6375046786796 9.536273244400711
0.0111 6366.513551467768 1.000291981842043 1.552508949020624 281.56191545951 9.487509528458023
0.0112 6366.525227303625 1.000291492740958 1.552435557350464 281.4860225264382 9.438771273454655
0.0113 6366.536949901751 1.000291002749402 1.552362108020068 281.4098256386209 9.390060123202183
0.0114 6366.548719299252 1.000290511875799 1.552288600949195 281.33332455486 9.34137771673516
0.0115 6366.56053553329 1.000290020128577 1.552215036058874 281.2565190336148 9.292725688220543
0.0116 6366.572398641076 1.000289527516163 1.552141413271513 281.1794088330074 9.244105666863508
0.0117 6366.584308659874 1.000289034046985 1.552067732510804 281.1019937108171 9.195519276806065
0.0118 6366.596265626999 1.000288539729471 1.551993993701802 281.0242734245038 9.146968137044569
0.0119 6366.608269579815 1.000288044572049 1.551920196770783 280.9462477312026 9.098453861328787
0.012 6366.620320555736 1.000287548583146 1.551846341645424 280.8679163877172 9.049978058061448
0.0121 6366.632418592224 1.000287051771189 1.551772428254697 280.7892791505441 9.001542330216411
0.0122 6366.644563726787 1.000286554144604 1.551698456528884 280.7103357758841 8.953148275249561
0.0123 6366.656755996982 1.000286055711815 1.551624426399582 280.6310860196189 8.904797484988276
0.0124 6366.668995440409 1.000285556481243 1.551550337799732 280.5515296373404 8.856491545553954
0.0125 6366.681282094716 1.000285056461311 1.551476190663541 280.471666384345 8.808232037262993
0.0126 6366.693615997593 1.000284555660435 1.551401984926584 280.3914960156452 8.760020534538969
0.0127 6366.705997186774 1.00028405408703 1.551327720525755 280.3110182859699 8.711858605817913
0.0128 6366.718425700034 1.00028355174951 1.551253397399226 280.230232949776 8.663747813461084
0.0129 6366.730901575192 1.000283048656283 1.551179015486507 280.1491397612543 8.61568971366443
0.013 6366.743424850105 1.000282544815754 1.551104574728461 280.0677384743179 8.567685856357985
0.0131 6366.755995562673 1.000282040236325 1.551030075067228 279.9860288426256 8.519737785126658
0.0132 6366.768613750832 1.000281534926392 1.550955516446274 279.9040106195938 8.471847037124217
0.0133 6366.781279452558 1.000281028894347 1.550880898810397 279.8216835583729 8.42401514296694
0.0134 6366.793992705863 1.000280522148578 1.550806222105727 279.7390474118887 8.37624362666568
0.0135 6366.806753548797 1.000280014697468 1.550731486279654 279.6561019328186 8.328534005520369
0.0136 6366.819562019445 1.000279506549391 1.550656691280964 279.5728468736096 8.280887790039065
0.0137 6366.832418155927 1.000278997712719 1.550581837059694 279.4892819864721 8.23330648384375
0.0138 6366.845321996399 1.000278488195816 1.550506923567245 279.4054070234096 8.185791583596799
0.0139 6366.858273579045 1.000277978007039 1.550431950756302 279.3212217362069 8.138344578904185
0.014 6366.871272942088 1.00027746715474 1.550356918580876 279.2367258764301 8.090966952226028
0.0141 6366.884320123776 1.000276955647261 1.550281826996305 279.1519191954561 8.043660178804149
0.0142 6366.897415162393 1.000276443492939 1.550206675959257 279.0668014444431 7.996425726556919
0.0143 6366.910558096251 1.000275930700101 1.550131465427641 278.9813723743658 7.949265056010988
0.0144 6366.923748963692 1.000275417277068 1.550056195360775 278.8956317360042 7.902179620207072
0.0145 6366.936987803083 1.000274903232151 1.54998086571923 278.8095792799608 7.855170864622614
0.0146 6366.950274652821 1.000274388573652 1.549905476464911 278.7232147566605 7.808240227085115
0.0147 6366.963609551331 1.000273873309864 1.549830027561039 278.6365379163511 7.761389137686061
0.0148 6366.97699253706 1.000273357449072 1.549754518972089 278.5495485091091 7.714619018698616
0.0149 6366.990423648483 1.000272840999548 1.549678950663957 278.4622462848628 7.667931284505293
0.015 6367.003902924097 1.000272323969559 1.549603322603728 278.3746309933694 7.621327341500741
0.0151 6367.017430402424 1.000271806367357 1.549527634759849 278.286702384244 7.574808588023643
0.0152 6367.031006122007 1.000271288201183 1.549451887102117 278.1984602069541 7.528376414270133
0.0153 6367.044630121412 1.000270769479271 1.549376079601545 278.1099042108193 7.482032202211045
0.0154 6367.058302439225 1.00027025020984 1.549300212230519 278.0210341450351 7.435777325522093
0.0155 6367.072023114052 1.000269730401099 1.549224284962666 277.9318497586609 7.389613149495997
0.0156 6367.085792184518 1.000269210061244 1.549148297773002 277.8423508006321 7.34354103096763
0.0157 6367.099609689266 1.00026868919846 1.549072250637735 277.7525370197717 7.297562318239643
0.0158 6367.113475666957 1.000268167820917 1.548996143534455 277.6624081647786 7.251678350996571
0.0159 6367.12739015627 1.000267645936774 1.548919976442019 277.5719639842454 7.205890460234776
0.016 6367.141353195897 1.000267123554176 1.548843749340558 277.4812042266698 7.160199968189802
0.0161 6367.155364824548 1.000266600681255 1.548767462211534 277.3901286404374 7.114608188249523
0.0162 6367.169425080944 1.000266077326128 1.548691115037684 277.2987369738629 7.069116424897648
0.0163 6367.183534003823 1.000265553496898 1.548614707803011 277.2070289751485 7.023725973616398
0.0164 6367.197691631933 1.000265029201655 1.548538240492844 277.1150043924375 6.978438120837072
0.0165 6367.211898004033 1.000264504448472 1.548461713093795 277.0226629737843 6.933254143850059
0.0166 6367.226153158897 1.000263979245408 1.54838512559372 276.9300044671726 6.888175310739067
0.0167 6367.240457135304 1.000263453600505 1.548308477981796 276.8370286205208 6.843202880310113
0.0168 6367.254809972047 1.000262927521791 1.548231770248478 276.7437351816942 6.798338102024023
0.0169 6367.269211707925 1.000262401017278 1.548155002385458 276.6501238984873 6.753582215915445
0.017 6367.283662381745 1.00026187409496 1.548078174385766 276.556194518659 6.708936452538144
0.0171 6367.298162032321 1.000261346762816 1.548001286243648 276.461946789915 6.664402032885465
0.0172 6367.312710698473 1.000260819028806 1.547924337954662 276.3673804599256 6.61998016832849
0.0173 6367.327308419028 1.000260290900874 1.54784732951561 276.2724952763195 6.575672060543734
0.0174 6367.341955232815 1.000259762386946 1.547770260924566 276.1772909867021 6.531478901452698
0.0175 6367.356651178668 1.00025923349493 1.547693132180865 276.0817673386549 6.487401873153801
0.0176 6367.371396295424 1.000258704232717 1.54761594328512 275.9859240797417 6.443442147857868
0.0177 6367.386190621922 1.000258174608176 1.547538694239193 275.8897609575087 6.399600887821684
0.0178 6367.401034197 1.000257644629162 1.547461385046198 275.7932777195018 6.355879245290415
0.0179 6367.4159270595 1.000257114303507 1.547384015710495 275.6964741132496 6.312278362424681
0.018 6367.430869248263 1.000256583639025 1.5473065862377 275.5993498862921 6.268799371249906
0.0181 6367.445860802127 1.00025605264351 1.547229096634698 275.5019047861755 6.225443393590327
0.0182 6367.46090175993 1.000255521324737 1.547151546909588 275.4041385604518 6.182211541006603
0.0183 6367.475992160508 1.000254989690459 1.547073937071711 275.3060509566966 6.139104914742092
0.0184 6367.491132042691 1.000254457748409 1.546996267131689 275.2076417225093 6.096124605662025
0.0185 6367.506321445306 1.000253925506299 1.546918537101335 275.1089106055127 6.053271694193588
0.0186 6367.521560407175 1.000253392971822 1.546840746993708 275.0098573533654 6.010547250272018
0.0187 6367.536848967115 1.000252860152645 1.546762896823095 274.9104817137494 5.967952333277336
0.0188 6367.552187163937 1.000252327056417 1.546684986605028 274.8107834344117 5.925487991994786
0.0189 6367.56757503644 1.000251793690764 1.546607016356228 274.710762263141 5.883155264548123
0.019 6367.583012623421 1.00025126006329 1.546528986094662 274.610417947761 5.840955178341675
0.0191 6367.598499963666 1.000250726181574 1.546450895839508 274.5097502361726 5.79888875002314
0.0192 6367.614037095949 1.000250192053175 1.546372745611153 274.4087588763299 5.756956985419794
0.0193 6367.629624059037 1.000249657685628 1.546294535431184 274.3074436162577 5.715160879493054
0.0194 6367.645260891685 1.000249123086444 1.5462162653224 274.2058042040461 5.673501416284076
0.0195 6367.660947632634 1.00024858826311 1.546137935308821 274.1038403878796 5.631979568874838
0.0196 6367.676684320613 1.000248053223091 1.546059545415653 274.0015519160137 5.59059629932829
0.0197 6367.69247099434 1.000247517973825 1.545981095669261 273.8989385367926 5.549352558646461
0.0198 6367.708307692516 1.000246982522727 1.545902586097252 273.7959999986432 5.508249286719868
0.0199 6367.724194453829 1.000246446877188 1.54582401672841 273.6927360501107 5.467287412294413
0.02 6367.740131316949 1.000245911044571 1.545745387592677 273.5891464398291 5.426467852913186
0.0201 6367.756118320533 1.000245375032218 1.545666698721175 273.4852309165384 5.385791514878219
0.0202 6367.772155503217 1.00024483884744 1.545587950146244 273.3809892290914 5.345259293208412
0.0203 6367.788242903621 1.000244302497528 1.545509141901345 273.2764211264647 5.304872071600673
