#theta R n z T P_w
0 6365.5 1.000275172901999 1.560324351282931 288.15 0.5115518508315622
0.0001 6365.506698014227 1.000274991733902 1.560241496471811 288.1064629075221 0.5101194734534871
0.0002 6365.513448782729 1.000274809238629 1.560158632835992 288.0625829122613 0.508679380233146
0.0003 6365.520252311384 1.000274625418318 1.560075760298437 288.0183599760043 0.5072316462050734
0.0004 6365.527108606122 1.000274440275118 1.55999287878244 287.9737940602066 0.505776346716602
0.0005 6365.534017672923 1.000274253811196 1.559909988211541 287.9288851259988 0.5043135574224153
0.0006000000000000001 6365.54097951782 1.000274066028732 1.559827088509653 287.8836331341685 0.50284335427831
0.0007 6365.547994146894 1.00027387692992 1.559744179600882 287.8380380451898 0.5013658135364769
0.0008 6365.555061566277 1.000273686516972 1.559661261409615 287.7920998192002 0.4998810117390304
0.0009000000000000001 6365.562181782151 1.000273494792111 1.559578333860577 287.7458184160176 0.498389025712864
0.001 6365.56935480075 1.000273301757577 1.559495396878694 287.6991937951233 0.4968899325633372
0.0011 6365.576580628357 1.000273107415625 1.559412450389138 287.652225915679 0.4953838096690917
0.0012 6365.583859271302 1.000272911768522 1.559329494317448 287.6049147365392 0.4938707346766503
0.0013 6365.591190735967 1.000272714818552 1.559246528589271 287.5572602162155 0.4923507854934868
0.0014 6365.598575028785 1.000272516568014 1.559163553130639 287.5092623129002 0.490824040282976
0.0015 6365.606012156235 1.000272317019219 1.559080567867699 287.4609209844724 0.4892905774587525
0.0016 6365.613502124846 1.000272116174495 1.558997572726966 287.4122361884978 0.4877504756788645
0.0017 6365.621044941198 1.000271914036182 1.558914567635112 287.363207882211 0.4862038138393541
0.0018 6365.628640611919 1.000271710606638 1.55883155251909 287.3138360225274 0.48465067106876
0.0019 6365.636289143682 1.000271505888232 1.55874852730611 287.2641205660669 0.4830911267229709
0.002 6365.643990543213 1.000271299883348 1.558665491923537 287.2140614691183 0.4815252603782055
0.0021 6365.651744817284 1.000271092594386 1.558582446299032 287.1636586876569 0.4799531518256562
0.0022 6365.659551972715 1.00027088402376 1.558499390360462 287.1129121773509 0.4783748810657424
0.0023 6365.667412016376 1.000270674173896 1.558416324035921 287.061821893555 0.4767905283019836
0.0024 6365.675324955183 1.000270463047237 1.558333247253737 287.0103877913106 0.4752001739350448
0.0025 6365.683290796102 1.000270250646238 1.558250159942436 286.9586098253397 0.4736038985565914
0.0026 6365.691309546143 1.000270036973369 1.558167062030774 286.9064879500692 0.4720017829440408
0.0027 6365.699381212368 1.000269822031116 1.558083953447708 286.8540221196062 0.4703939080538466
0.0028 6365.707505801883 1.000269605821976 1.558000834122492 286.8012122877625 0.4687803550162271
0.0029 6365.715683321841 1.000269388348462 1.557917703984495 286.7480584080366 0.467161205128614
0.003 6365.723913779443 1.0002691696131 1.557834562963304 286.6945604336196 0.465536539849819
0.0031 6365.732197181939 1.00026894961843 1.55775141098879 286.640718317395 0.4639064407940104
0.0032 6365.740533536624 1.000268728367008 1.557668247990976 286.586532011945 0.4622709897248605
0.0033 6365.748922850838 1.000268505861401 1.557585073900081 286.5320014695561 0.4606302685496824
0.0034 6365.75736513197 1.000268282104191 1.557501888646575 286.4771266421957 0.4589843593126722
0.0035 6365.765860387456 1.000268057097975 1.557418692161103 286.4219074815354 0.4573333441895698
0.0036 6365.774408624776 1.000267830845361 1.557335484374498 286.3663439389574 0.4556773054817742
0.0037 6365.783009851456 1.000267603348975 1.557252265217835 286.3104359655362 0.4540163256097476
0.0038 6365.79166407507 1.000267374611452 1.55716903462237 286.254183512045 0.452350487107126
0.0039 6365.800371303238 1.000267144635444 1.557085792519534 286.1975865289554 0.4506798726146465
0.004 6365.809131543623 1.000266913423615 1.557002538840994 286.1406449664495 0.4490045648744206
0.0041 6365.817944803937 1.000266680978643 1.556919273518626 286.0833587744077 0.4473246467235044
0.004200000000000001 6365.826811091936 1.00026644730322 1.556835996484417 286.0257279024148 0.4456402010879904
0.0043 6365.835730415421 1.000266212400051 1.55675270767065 285.9677522997603 0.4439513109769235
0.0044 6365.844702782239 1.000265976271856 1.556669407009712 285.9094319154436 0.4422580594763866
0.004500000000000001 6365.853728200283 1.000265738921365 1.556586094434268 285.8507666981631 0.4405605297430689
0.0046 6365.862806677487 1.000265500351324 1.556502769877105 285.7917565963329 0.4388588049986937
0.0047 6365.871938221836 1.000265260564492 1.556419433271266 285.732401558066 0.4371529685234165
0.0048 6365.881122841356 1.000265019563642 1.556336084549903 285.6727015311857 0.4354431036500815
0.0049 6365.890360544118 1.000264777351559 1.556252723646409 285.6126564632312 0.4337292937583028
0.005 6365.89965133824 1.000264533931041 1.556169350494352 285.5522663014407 0.4320116222678733
0.0051 6365.90899523188 1.0002642893049 1.556085965027559 285.49153099278 0.4302901726335244
0.005200000000000001 6365.918392233244 1.000264043475962 1.556002567179906 285.4304504839137 0.4285650283380047
0.0053 6365.927842350581 1.000263796447063 1.555919156885559 285.3690247212224 0.4268362728865088
0.0054 6365.937345592184 1.000263548221056 1.555835734078861 285.3072536508033 0.4251039898006028
0.005500000000000001 6365.946901966392 1.000263298800804 1.555752298694265 285.2451372184518 0.4233682626116594
0.0056 6365.956511481583 1.000263048189185 1.555668850666544 285.182675369709 0.4216291748561175
0.0057 6365.966174146184 1.000262796389089 1.555585389930495 285.1198680498031 0.4198868100677708
0.0058 6365.975889968663 1.000262543403419 1.555501916421231 285.05671520369 0.4181412517728724
0.0059 6365.985658957533 1.00026228923509 1.555418430073973 284.9932167760361 0.4163925834835955
0.006 6365.995481121348 1.000262033887031 1.555334930824151 284.9293727112357 0.4146408886924837
0.0061 6366.005356468708 1.000261777362183 1.555251418607409 284.8651829533995 0.4128862508660922
0.006200000000000001 6366.015285008253 1.000261519663501 1.555167893359523 284.8006474463544 0.4111287534389654
0.0063 6366.02526674867 1.000261260793952 1.555084355016449 284.7357661336436 0.4093684798076246
0.0064 6366.035301698687 1.000261000756514 1.555000803514359 284.6705389585321 0.4076055133247235
0.006500000000000001 6366.045389867075 1.00026073955418 1.554917238789594 284.6049658640135 0.4058399372932106
0.0066 6366.055531262647 1.000260477189954 1.554833660778691 284.5390467927972 0.4040718349600236
0.0067 6366.065725894258 1.000260213666853 1.554750069418317 284.4727816873209 0.4023012895104339
0.0068 6366.075973770809 1.000259948987907 1.55466646464537 284.4061704897443 0.4005283840619221
0.006900000000000001 6366.086274901239 1.000259683156157 1.554582846396926 284.3392131419436 0.3987532016580717
0.007 6366.096629294533 1.000259416174659 1.554499214610218 284.2719095855344 0.3969758252632563
0.0071 6366.107036959716 1.000259148046477 1.554415569222644 284.2042597618432 0.3951963377559302
0.007200000000000001 6366.117497905856 1.000258878774692 1.554331910171834 284.136263611936 0.3934148219234956
0.0073 6366.128012142062 1.000258608362394 1.554248237395553 284.0679210765951 0.3916313604557817
0.0074 6366.138579677487 1.000258336812687 1.554164550831783 283.9992320963369 0.3898460359396244
0.007500000000000001 6366.149200521322 1.000258064128685 1.554080850418621 283.9301966114057 0.3880589308528419
0.0076 6366.159874682803 1.000257790313517 1.553997136094437 283.8608145617799 0.3862701275585326
0.0077 6366.170602171205 1.000257515370321 1.55391340779771 283.7910858871659 0.384479708299083
0.007800000000000001 6366.181382995846 1.00025723930225 1.553829665467098 283.7210105269982 0.3826877551903476
0.007900000000000001 6366.192217166086 1.000256962112467 1.553745909041472 283.6505884204392 0.3808943502158458
0.008 6366.203104691325 1.000256683804146 1.553662138459842 283.5798195063857 0.3790995752211269
0.0081 6366.214045581004 1.000256404380476 1.553578353661447 283.5087037234738 0.3773035119081492
0.008200000000000001 6366.225039844604 1.000256123844655 1.553494554585678 283.437241010074 0.3755062418293786
0.0083 6366.236087491649 1.000255842199895 1.553410741172078 283.3654313042788 0.3737078463817619
0.008400000000000001 6366.247188531704 1.000255559449417 1.553326913360391 283.2932745439265 0.3719084068016111
0.008500000000000001 6366.25834297437 1.000255275596455 1.55324307109058 283.2207706665953 0.3701080041587607
0.0086 6366.269550829293 1.000254990644257 1.553159214302715 283.1479196095974 0.3683067193507492
0.008700000000000001 6366.280812106159 1.000254704596077 1.553075342937096 283.074721309967 0.3665046330968822
0.008800000000000001 6366.292126814693 1.000254417455187 1.552991456934153 283.0011757044962 0.3647018259334807
0.0089 6366.303494964661 1.000254129224866 1.552907556234533 282.9272827297049 0.3628983782075462
0.009000000000000001 6366.314916565868 1.000253839908406 1.552823640779067 282.8530423218589 0.3610943700716154
0.0091 6366.326391628159 1.00025354950911 1.552739710508729 282.7784544169639 0.3592898814780546
0.0092 6366.337920161422 1.000253258030292 1.552655765364719 282.7035189507595 0.3574849921733845
0.009300000000000001 6366.349502175579 1.000252965475279 1.552571805288353 282.6282358587372 0.3556797816931971
0.0094 6366.361137680597 1.000252671847407 1.55248783022117 282.5526050761222 0.3538743293562433
0.0095 6366.372826686477 1.000252377150024 1.552403840104869 282.4766265378975 0.3520687142595371
0.009600000000000001 6366.384569203266 1.000252081386491 1.552319834881374 282.4003001787681 0.3502630152720775
0.0097 6366.396365241046 1.000251784560176 1.552235814492689 282.3236259332028 0.3484573110304243
0.0098 6366.408214809938 1.000251486674463 1.552151778881092 282.2466037354042 0.346651679932615
0.009900000000000001 6366.420117920105 1.000251187732742 1.552067727988985 282.1692335193205 0.3448462001330938
0.01 6366.432074581746 1.000250887738418 1.551983661758962 282.091515218652 0.3430409495375217
0.0101 6366.444084805099 1.000250586694906 1.551899580133806 282.0134487668564 0.3412360057976134
0.0102 6366.456148600443 1.000250284605628 1.55181548305649 281.9350340971195 0.3394314463051846
0.0103 6366.468265978095 1.000249981474024 1.5517313704701 281.8562711423846 0.3376273481875989
0.0104 6366.480436948407 1.000249677303537 1.551647242317992 281.7771598353528 0.3358237883025532
0.0105 6366.492661521775 1.000249372097626 1.551563098543635 281.697700108465 0.3340208432324934
0.0106 6366.504939708629 1.00024906585976 1.551478939090706 281.6178918939139 0.3322185892797374
0.0107 6366.517271519438 1.000248758593416 1.551394763903042 281.5377351236556 0.3304171024616226
0.0108 6366.52965696471 1.000248450302083 1.551310572924676 281.4572297293861 0.3286164585048864
0.0109 6366.542096054991 1.000248140989261 1.55122636609985 281.3763756425591 0.3268167328410136
0.011 6366.554588800865 1.000247830658461 1.551142143372882 281.2951727943799 0.3250180006010825
0.0111 6366.567135212952 1.000247519313203 1.551057904688388 281.2136211158116 0.3232203366109083
0.0112 6366.579735301911 1.000247206957017 1.550973649991103 281.1317205375807 0.3214238153862169
0.0113 6366.592389078437 1.000246893593445 1.550889379225927 281.0494709901594 0.3196285111273344
0.0114 6366.605096553266 1.000246579226037 1.550805092337989 280.9668724037718 0.3178344977144349
0.0115 6366.617857737167 1.000246263858355 1.550720789272578 280.8839247084114 0.3160418487030752
0.0116 6366.63067264095 1.000245947493972 1.550636469975121 280.8006278338233 0.3142506373189926
0.0117 6366.643541275459 1.000245630136468 1.550552134391307 280.7169817095163 0.3124609364535814
0.0118 6366.656463651575 1.000245311789436 1.550467782466923 280.6329862647625 0.3106728186591473
0.0119 6366.669439780218 1.000244992456477 1.550383414147997 280.54864142858 0.3088863561438243
0.012 6366.682469672344 1.000244672141202 1.550299029380705 280.4639471297622 0.3071016207675346
0.0121 6366.695553338945 1.000244350847233 1.550214628111433 280.3789032968601 0.3053186840369785
0.0122 6366.708690791047 1.000244028578203 1.550130210286691 280.2935098581942 0.303537617101289
0.0123 6366.721882039717 1.00024370533775 1.550045775853224 280.2077667418365 0.3017584907471059
0.0124 6366.735127096058 1.000243381129527 1.549961324757946 280.1216738756228 0.2999813753943095
0.0125 6366.748425971205 1.000243055957195 1.549876856947942 280.0352311871701 0.2982063410919067
0.0126 6366.761778676332 1.000242729824422 1.549792372370473 279.9484386038411 0.2964334575128625
0.0127 6366.775185222649 1.000242402734889 1.549707870972995 279.8612960527797 0.2946627939504325
0.0128 6366.788645621401 1.000242074692285 1.549623352703122 279.7738034608936 0.2928944193134403
0.0129 6366.802159883869 1.000241745700308 1.549538817508722 279.6859607548539 0.2911284021219643
0.013 6366.815728021368 1.000241415762667 1.549454265337752 279.5977678611069 0.289364810503301
0.0131 6366.829350045252 1.00024108488308 1.549369696138388 279.5092247058627 0.2876037121874947
0.0132 6366.843025966908 1.000240753065271 1.549285109858992 279.4203312151006 0.2858451745032662
0.0133 6366.856755797757 1.000240420312979 1.549200506448122 279.3310873145814 0.284089264374098
0.0134 6366.870539549258 1.000240086629948 1.549115885854472 279.2414929298233 0.2823360483136615
0.0135 6366.884377232904 1.000239752019932 1.549031248026986 279.1515479861258 0.2805855924222227
0.0136 6366.898268860222 1.000239416486694 1.54894659291473 279.0612524085581 0.2788379623823899
0.0137 6366.912214442774 1.000239080034007 1.548861920466981 278.9706061219703 0.27709322345537
0.0138 6366.926213992158 1.000238742665652 1.548777230633199 278.8796090509703 0.2753514404765827
0.0139 6366.940267520006 1.00023840438542 1.548692523363013 278.7882611199592 0.2736126778524584
0.014 6366.954375037983 1.00023806519711 1.548607798606263 278.6965622531073 0.2718769995561431
0.0141 6366.96853655779 1.00023772510453 1.548523056312914 278.6045123743664 0.2701444691239294
0.0142 6366.98275209116 1.000237384111496 1.548438296433194 278.5121114074576 0.2684151496512855
0.0143 6366.997021649865 1.000237042221835 1.54835351891746 278.4193592758774 0.2666891037892672
0.0144 6367.011345245706 1.00023669943938 1.548268723716242 278.3262559029093 0.2649663937410828
0.0145 6367.025722890519 1.000236355767974 1.548183910780326 278.2328012116244 0.263247081258479
0.0146 6367.040154596176 1.000236011211469 1.548099080060589 278.1389951248569 0.2615312276377458
0.0147 6367.054640374579 1.000235665773723 1.548014231508166 278.0448375652344 0.2598188937167472
0.0148 6367.069180237669 1.000235319458607 1.547929365074327 277.9503284551537 0.2581101398710229
0.0149 6367.083774197414 1.000234972269996 1.547844480710567 277.8554677168107 0.2564050260109075
0.015 6367.098422265819 1.000234624211775 1.547759578368527 277.7602552721768 0.2547036115777314
0.0151 6367.113124454922 1.000234275287838 1.547674658000056 277.6646910430044 0.2530059555406093
0.0152 6367.127880776794 1.000233925502086 1.547589719557177 277.5687749508392 0.2513121163933799
0.0153 6367.142691243539 1.000233574858429 1.547504762992116 277.4725069169962 0.2496221521509649
0.0154 6367.157555867291 1.000233223360784 1.547419788257264 277.3758868626072 0.2479361203470301
0.0155 6367.172474660222 1.000232871013079 1.547334795305193 277.2789147085558 0.246254078029722
0.0156 6367.187447634532 1.000232517819245 1.5472497840887 277.1815903755422 0.2445760817597335
0.0157 6367.202474802457 1.000232163783226 1.547164754560706 277.0839137840302 0.2429021876063588
0.0158 6367.217556176262 1.000231808908972 1.547079706674353 276.9858848542943 0.2412324511453395
0.0159 6367.232691768249 1.000231453200439 1.546994640382972 276.8875035063846 0.2395669274553368
0.016 6367.247881590744 1.000231096661594 1.54690955564007 276.7887696601618 0.2379056711156661
0.0161 6367.263125656114 1.000230739296409 1.54682445239936 276.6896832352562 0.2362487362027819
0.0162 6367.278423976754 1.000230381108866 1.546739330614693 276.590244151097 0.2345961762880147
0.0163 6367.29377656509 1.000230022102952 1.546654190240156 276.4904523269123 0.2329480444348565
0.0164 6367.309183433581 1.000229662282664 1.546569031230005 276.3903076817236 0.2313043931962024
0.0165 6367.324644594717 1.000229301652006 1.546483853538657 276.2898101343393 0.2296652746116477
0.0166 6367.34016006102 1.000228940214989 1.546398657120752 276.1889596033669 0.2280307402051297
0.0167 6367.355729845043 1.000228577975631 1.546313441931099 276.0877560072189 0.2264008409825208
0.0168 6367.371353959371 1.000228214937957 1.546228207924699 275.9861992640889 0.2247756274287993
0.0169 6367.387032416617 1.000227851106003 1.54614295505672 275.8842892919873 0.2231551495062264
0.017 6367.402765229431 1.000227486483806 1.546057683282556 275.7820260087 0.2215394566513455
0.0171 6367.418552410487 1.000227121075416 1.545972392557755 275.6794093318352 0.2199285977734474
0.0172 6367.434393972495 1.000226754884886 1.545887082838074 275.5764391787828 0.2183226212516849
0.0173 6367.450289928193 1.00022638791628 1.545801754079416 275.4731154667433 0.2167215749333603
0.0174 6367.466240290351 1.000226020173665 1.545716406237923 275.369438112716 0.2151255061316176
0.0175 6367.482245071768 1.000225651661118 1.545631039269903 275.2654070335055 0.2135344616234652
0.0176 6367.498304285275 1.000225282382721 1.545545653131833 275.1610221457153 0.2119484876476726
0.0177 6367.514417943731 1.000224912342564 1.545460247780407 275.0562833657476 0.2103676299028145
0.0178 6367.530586060027 1.000224541544743 1.54537482317249 274.9511906098277 0.208791933545724
0.0179 6367.546808647083 1.000224169993362 1.545289379265135 274.8457437939618 0.2072214431890219
0.018 6367.563085717849 1.00022379769253 1.545203916015579 274.7399428339789 0.2056562028999478
0.0181 6367.579417285306 1.000223424646364 1.545118433381259 274.6337876455131 0.2040962561983559
0.0182 6367.595803362461 1.000223050858987 1.545032931319808 274.5272781440029 0.2025416460550357
0.0183 6367.612243962356 1.000222676334529 1.544947409789009 274.4204142446864 0.2009924148900041
0.0184 6367.628739098057 1.000222301077127 1.544861868746861 274.3131958626299 0.1994486045713663
0.0185 6367.645288782663 1.000221925090921 1.544776308151552 274.2056229126928 0.1979102564132887
0.0186 6367.661893029299 1.000221548380063 1.544690727961457 274.0976953095573 0.1963774111749701
0.0187 6367.678551851122 1.000221170948706 1.544605128135118 273.9894129677044 0.1948501090589046
0.0188 6367.695265261317 1.000220792801012 1.544519508631312 273.8807758014381 0.1933283897098752
0.0189 6367.712033273097 1.00022041394115 1.544433869408916 273.7717837248669 0.1918122922134169
0.019 6367.728855899704 1.000220034373292 1.544348210427115 273.6624366519221 0.1903018550948361
0.0191 6367.745733154408 1.000219654101619 1.544262531645191 273.552734496346 0.1887971163178716
0.0192 6367.762665050509 1.000219273130317 1.544176833022651 273.4426771716916 0.1872981132835816
0.0193 6367.779651601334 1.000218891463578 1.544091114519189 273.3322645913285 0.1858048828293667
0.0194 6367.79669282024 1.000218509105601 1.544005376094653 273.2214966684431 0.1843174612279684
0.0195 6367.813788720608 1.000218126060587 1.543919617709138 273.1103733160447 0.1828358841866025
0.0196 6367.830939315853 1.000217742332748 1.543833839322888 272.9988944469532 0.1813601868459143
0.0197 6367.848144619413 1.000217357926299 1.543748040896343 272.8870599738169 0.1798904037793838
0.0198 6367.865404644755 1.00021697284546 1.543662222390133 272.7748698090894 0.178426568992241
0.0199 6367.882719405375 1.000216587094459 1.543576383765075 272.6623238650644 0.1769687159212146
0.02 6367.900088914795 1.000216200677528 1.543490524982199 272.5494220538347 0.1755168774333346
0.0201 6367.917513186564 1.000215813598904 1.54340464600268 272.4361642873336 0.1740710858258675
