#theta R n z T P_w
0 6365.5 1.000340352027961 1.560324351282931 288.15 15.00552095772583
0.0001 6365.506698014227 1.000340008042022 1.56025692672437 288.1064629075221 14.96350455463562
0.0002 6365.513438959478 1.00033966230178 1.560189460420315 288.0626467633946 14.9213232126972
0.0003 6365.520222862526 1.000339314813826 1.560121952153786 288.0185513935825 14.87897854281389
0.0004 6365.527049750285 1.000338965584784 1.560054401708822 287.9741766231463 14.83647216131902
0.0005 6365.533919649808 1.000338614621306 1.559986808870679 287.9295222762479 14.79380568989882
0.0006000000000000001 6365.540832588285 1.000338261930074 1.559919173425755 287.8845881761448 14.75098075550358
0.0007 6365.547788593045 1.000337907517802 1.559851495161452 287.8393741452077 14.707998990281
0.0008 6365.554787691551 1.000337551391232 1.559783773866267 287.7938800049204 14.66486203149217
0.0009000000000000001 6365.561829911406 1.000337193557133 1.559716009329964 287.7481055758625 14.62157152141041
0.001 6365.568915280346 1.000336834022308 1.559648201343227 287.7020506777502 14.57812910727569
0.0011 6365.576043826243 1.000336472793584 1.559580349698045 287.655715129419 14.53453644119262
0.0012 6365.583215577101 1.000336109877822 1.559512454187357 287.6090987488413 14.49079518006152
0.0013 6365.59043056106 1.000335745281906 1.559444514605353 287.5622013531087 14.44690698547583
0.0014 6365.597688806391 1.000335379012752 1.5593765307473 287.5150227584612 14.40287352366344
0.0015 6365.604990341495 1.000335011077303 1.559308502409547 287.467562780282 14.35869646539432
0.0016 6365.612335194909 1.000334641482529 1.559240429389664 287.4198212330911 14.31437748588792
0.0017 6365.619723395297 1.000334270235432 1.559172311486195 287.3717979305687 14.26991826474765
0.0018 6365.627154971452 1.000333897343035 1.559104148498976 287.323492685562 14.2253204858783
0.0019 6365.634629952299 1.000333522812394 1.559035940228922 287.2749053100546 14.18058583737049
0.002 6365.642148366889 1.000333146650588 1.558967686478037 287.2260356152204 14.13571601146116
0.0021 6365.649710244402 1.000332768864726 1.558899387049501 287.1768834113881 14.09071270441173
0.0022 6365.657315614144 1.000332389461943 1.558831041747613 287.1274485080643 14.04557761644059
0.0023 6365.664964505548 1.000332008449398 1.558762650377851 287.07773071394 14.00031245163866
0.0024 6365.672656948171 1.00033162583428 1.558694212746789 287.0277298368904 13.95491891787923
0.0025 6365.680392971695 1.000331241623801 1.558625728662178 286.9774456839808 13.90939872673291
0.0026 6365.68817260593 1.000330855825201 1.558557197932896 286.9268780614547 13.86375359336612
0.0027 6365.695995880804 1.000330468445744 1.558488620369014 286.8760267747751 13.81798523648741
0.0028 6365.703862826368 1.000330079492721 1.55841999578172 286.8248916286074 13.77209537823976
0.0029 6365.711773472797 1.000329688973446 1.55835132398335 286.7734724268183 13.72608574410883
0.003 6365.719727850387 1.000329296895261 1.55828260478739 286.7217689724829 13.67995806283612
0.0031 6365.727725989555 1.00032890326553 1.558213838008534 286.6697810678955 13.63371406633713
0.0032 6365.735767920833 1.000328508091643 1.558145023462633 286.6175085145823 13.58735548961889
0.0033 6365.743853674879 1.000328111381013 1.558076160966635 286.5649511132887 13.54088407067639
0.0034 6365.751983282462 1.000327713141079 1.558007250338745 286.5121086639978 13.49430155041481
0.0035 6365.760156774473 1.000327313379302 1.557938291398267 286.4589809659241 13.44760967255048
0.0036 6365.768374181919 1.000326912103166 1.557869283965745 286.4055678175254 13.4008101835273
0.0037 6365.776635535923 1.000326509320182 1.557800227862837 286.3518690165027 13.35390483242228
0.0038 6365.78494086772 1.00032610503788 1.557731122912407 286.2978843598183 13.30689537086642
0.0039 6365.793290208665 1.000325699263816 1.557661968938495 286.2436136436776 13.25978355293419
0.004 6365.801683590222 1.000325292005566 1.557592765766366 286.1890566635587 13.21257113507405
0.0041 6365.810121043969 1.00032488327073 1.557523513222376 286.1342132142012 13.16525987600253
0.004200000000000001 6365.818602601598 1.000324473066929 1.557454211134151 286.0790830896111 13.11785153661359
0.0043 6365.827128294912 1.000324061401809 1.557384859330496 286.0236660830736 13.0703478798927
0.0044 6365.835698155822 1.000323648283032 1.557315457641397 285.9679619871584 13.0227506708255
0.004500000000000001 6365.844312216352 1.000323233718288 1.557246005898031 285.911970593714 12.97506167629608
0.0046 6365.852970508633 1.000322817715283 1.557176503932791 285.8556916938854 12.92728266500522
0.0047 6365.861673064907 1.000322400281747 1.557106951579258 285.7991250781023 12.87941540736322
0.0048 6365.870419917522 1.000321981425429 1.557037348672191 285.7422705361085 12.83146167541748
0.0049 6365.879211098933 1.000321561154099 1.556967695047663 285.6851278569387 12.78342324273491
0.005 6365.8880466417 1.000321139475547 1.556897990542806 285.6276968289475 12.73530188432895
0.0051 6365.896926578493 1.000320716397584 1.556828234996067 285.5699772397978 12.68709937655145
0.005200000000000001 6365.905850942079 1.000320291928038 1.556758428247083 285.5119688764847 12.63881749701412
0.0053 6365.914819765336 1.00031986607476 1.55668857013671 285.4536715253174 12.59045802447512
0.0054 6365.92383308124 1.000319438845618 1.556618660507042 285.395084971943 12.5420227387599
0.005500000000000001 6365.932890922872 1.000319010248498 1.556548699201325 285.3362090013346 12.49351342065244
0.0056 6365.941993323415 1.000318580291307 1.556478686064121 285.2770433978034 12.44493185180587
0.0057 6365.951140316151 1.000318148981969 1.556408620941174 285.2175879450159 12.39627981465753
0.0058 6365.960331934464 1.000317716328426 1.556338503679431 285.1578424259827 12.3475590923197
0.0059 6365.969568211834 1.000317282338638 1.556268334127144 285.0978066230758 12.29877146849421
0.006 6365.978849181843 1.000316847020584 1.556198112133748 285.0374803180229 12.24991872736767
0.0061 6365.988174878166 1.000316410382257 1.556127837549925 284.9768632919189 12.2010026535209
0.006200000000000001 6365.997545334581 1.000315972431671 1.556057510227596 284.9159553252265 12.15202503182856
0.0063 6366.006960584958 1.000315533176853 1.555987130019952 284.8547561977756 12.10298764735876
0.0064 6366.016420663263 1.00031509262585 1.555916696781387 284.7932656887932 12.05389228529604
0.006500000000000001 6366.025925603556 1.000314650786722 1.555846210367596 284.7314835768856 12.00474073082631
0.0066 6366.035475439992 1.000314207667548 1.555775670635427 284.66940964005 11.95553476904531
0.0067 6366.045070206819 1.00031376327642 1.555705077443104 284.6070436556751 11.90627618485757
0.0068 6366.054709938376 1.000313317621447 1.555634430650032 284.5443854005579 11.85696676288915
0.006900000000000001 6366.064394669093 1.000312870710753 1.555563730116911 284.4814346508928 11.80760828737695
0.007 6366.074124433492 1.000312422552476 1.555492975705628 284.4181911823006 11.75820254209043
0.0071 6366.083899266185 1.000311973154768 1.555422167279418 284.3546547697991 11.70875131020683
0.007200000000000001 6366.09371920187 1.000311522525798 1.555351304702745 284.2908251878447 11.65925637424179
0.0073 6366.103584275336 1.000311070673747 1.555280387841345 284.2267022103141 11.60971951593365
0.0074 6366.113494521459 1.00031061760681 1.555209416562174 284.1622856105167 11.56014251615071
0.007500000000000001 6366.123449975201 1.000310163333195 1.555138390733551 284.0975751611944 11.51052715478925
0.0076 6366.133450671609 1.000309707861123 1.555067310225008 284.0325706345392 11.46087521068508
0.0077 6366.143496645817 1.000309251198829 1.554996174907373 283.9672718021874 11.41118846150678
0.007800000000000001 6366.153587933042 1.000308793354561 1.554924984652694 283.9016784352256 11.361468683658
0.007900000000000001 6366.163724568583 1.000308334336577 1.5548537393344 283.8357903042082 11.31171765218863
0.008 6366.173906587825 1.000307874153148 1.554782438827125 283.7696071791401 11.26193714067899
0.0081 6366.184134026229 1.000307412812558 1.554711083006808 283.7031288295115 11.2121289211642
0.008200000000000001 6366.194406919343 1.0003069503231 1.554639671750685 283.6363550242689 11.16229476400947
0.0083 6366.204725302793 1.000306486693081 1.554568204937254 283.5692855318447 11.11243643782987
0.008400000000000001 6366.215089212283 1.000306021930815 1.554496682446337 283.5019201201625 11.06255570939215
0.008500000000000001 6366.225498683594 1.000305556044631 1.554425104159017 283.4342585566377 11.01265434351208
0.0086 6366.23595375259 1.000305089042865 1.554353469957681 283.3663006081655 10.96273410294332
0.008700000000000001 6366.246454455207 1.000304620933863 1.554281779726043 283.2980460411562 10.91279674830101
0.008800000000000001 6366.257000827459 1.000304151725982 1.554210033349018 283.2294946215178 10.86284403794612
0.0089 6366.267592905435 1.000303681427588 1.554138230712954 283.1606461146733 10.81287772789599
0.009000000000000001 6366.278230725298 1.000303210047055 1.554066371705401 283.0915002855612 10.76289957172172
0.0091 6366.288914323286 1.000302737592768 1.553994456215244 283.0220568986409 10.71291132045004
0.0092 6366.299643735706 1.000302264073117 1.553922484132662 282.9523157179109 10.66291472247355
0.009300000000000001 6366.310418998942 1.000301789496503 1.553850455349141 282.8822765068788 10.61291152342714
0.0094 6366.321240149445 1.000301313871334 1.553778369757491 282.8119390286091 10.56290346611954
0.0095 6366.332107223738 1.000300837206024 1.553706227251846 282.741303045705 10.51289229041823
0.009600000000000001 6366.343020258412 1.000300359508996 1.553634027727583 282.6703683203203 10.46287973315566
0.0097 6366.353979290129 1.00029988078868 1.553561771081452 282.5991346141599 10.41286752802702
0.0098 6366.364984355619 1.000299401053511 1.553489457211496 282.527601688479 10.36285740548828
0.009900000000000001 6366.376035491675 1.000298920311931 1.55341708601705 282.4557693041132 10.31285109267488
0.01 6366.38713273516 1.000298438572388 1.553344657398809 282.3836372214608 10.26285031328734
0.0101 6366.398276122999 1.000297955843336 1.553272171258769 282.3112052005062 10.21285678750591
0.0102 6366.409465692185 1.000297472133234 1.553199627500249 282.238473000796 10.16287223187252
0.0103 6366.420701479773 1.000296987450546 1.55312702602785 282.1654403814754 10.11289835921379
0.0104 6366.431983522879 1.000296501803741 1.553054366747533 282.0921071012871 10.06293687853937
0.0105 6366.443311858683 1.000296015201291 1.552981649566595 282.0184729185602 10.01298949493266
0.0106 6366.454686524427 1.000295527651673 1.552908874393602 281.9445375912277 9.963057909461748
0.0107 6366.46610755741 1.00029503916337 1.552836041138486 281.8703008768324 9.913143819082414
0.0108 6366.477574994994 1.000294549744864 1.552763149712501 281.7957625325388 9.863248916545176
0.0109 6366.489088874598 1.000294059404643 1.552690200028226 281.7209223151152 9.81337489028275
0.011 6366.500649233697 1.000293568151197 1.552617191999562 281.6457799809695 9.763523424333297
0.0111 6366.512256109825 1.00029307599302 1.552544125541741 281.5703352861368 9.71369619823213
0.0112 6366.523909540573 1.000292582938606 1.552471000571292 281.4945879862743 9.663894886907798
0.0113 6366.535609563585 1.00029208899645 1.552397817006157 281.4185378366959 9.614121160605581
0.0114 6366.54735621656 1.000291594175053 1.55232457476554 281.3421845923611 9.564376684779912
0.0115 6366.559149537251 1.000291098482913 1.552251273769982 281.2655280078687 9.514663119991114
0.0116 6366.570989563464 1.00029060192853 1.552177913941396 281.1885678374864 9.464982121825425
0.0117 6366.582876333055 1.000290104520405 1.552104495202983 281.1113038351449 9.415335340792069
0.0118 6366.594809883933 1.00028960626704 1.552031017479298 281.033735754438 9.365724422224522
0.0119 6366.606790254057 1.000289107176934 1.551957480696229 280.9558633486284 9.316151006185885
0.012 6366.618817481435 1.000288607258589 1.551883884781023 280.8776863706715 9.266616727385713
0.0121 6366.630891604123 1.000288106520505 1.551810229662228 280.7992045731975 9.217123215070716
0.0122 6366.643012660226 1.00028760497118 1.55173651526973 280.720417708529 9.16767209293838
0.0123 6366.655180687894 1.000287102619112 1.551662741534755 280.6413255286874 9.118264979043268
0.0124 6366.667395725324 1.000286599472795 1.551588908389907 280.5619277853924 9.06890348569992
0.0125 6366.679657810758 1.000286095540724 1.551515015769073 280.4822242300742 9.019589219393461
0.0126 6366.691966982481 1.000285590831391 1.551441063607473 280.4022146138731 8.970323780683117
0.0127 6366.704323278825 1.000285085353283 1.551367051841729 280.3218986876399 8.921108764106158
0.0128 6366.716726738159 1.000284579114886 1.551292980409733 280.2412762019652 8.871945758100228
0.0129 6366.729177398899 1.000284072124682 1.55121884925076 280.1603469071559 8.822836344893366
0.013 6366.7416752995 1.000283564391151 1.551144658305387 280.0791105532529 8.773782100419835
0.0131 6366.754220478456 1.000283055922766 1.551070407515548 279.9975668900369 8.724784594228959
0.0132 6366.766812974302 1.000282546727997 1.550996096824528 279.9157156670402 8.675845389397862
0.0133 6366.779452825608 1.000282036815311 1.550921726176922 279.8335566335471 8.626966042437434
0.0134 6366.792140070987 1.000281526193168 1.550847295518663 279.7510895385875 8.578148103195277
0.0135 6366.804874749083 1.000281014870023 1.550772804797071 279.6683141309608 8.529393114776614
0.0136 6366.81765689858 1.000280502854326 1.550698253960723 279.5852301592298 8.480702613447969
0.0137 6366.830486558194 1.000279990154521 1.550623642959591 279.5018373717388 8.432078128555238
0.0138 6366.843363766678 1.000279476779044 1.550548971744976 279.4181355165955 8.383521182421397
0.0139 6366.856288562814 1.000278962736328 1.550474240269487 279.3341243417066 8.335033290275691
0.014 6366.869260985422 1.000278448034796 1.550399448487086 279.2498035947541 8.286615960148861
0.0141 6366.88228107335 1.000277932682865 1.550324596353103 279.1651730232251 8.238270692799638
0.0142 6366.895348865477 1.000277416688943 1.550249683824124 279.0802323743995 8.189998981617808
0.0143 6366.908464400713 1.000276900061433 1.55017471085814 278.9949813953684 8.141802312544707
0.0144 6366.921627717995 1.000276382808726 1.55009967741444 278.9094198330334 8.093682163984006
0.0145 6366.93483885629 1.000275864939208 1.55002458345367 278.823547434113 8.045640006716392
0.0146 6366.948097854593 1.000275346461253 1.549949428937777 278.7373639451424 7.997677303811436
0.0147 6366.961404751924 1.000274827383229 1.549874213830047 278.6508691124913 7.949795510549825
0.0148 6366.97475958733 1.000274307713491 1.54979893809512 278.5640626823578 7.901996074332926
0.0149 6366.988162399881 1.000273787460387 1.549723601698918 278.4769444007746 7.854280434599502
0.015 6367.001613228672 1.000273266632254 1.549648204608763 278.3895140136327 7.806650022752591
0.0151 6367.015112112821 1.000272745237416 1.549572746793221 278.3017712666632 7.759106262064223
0.0152 6367.02865909147 1.000272223284191 1.549497228222229 278.2137159054436 7.711650567593804
0.0153 6367.04225420378 1.000271700780882 1.549421648867046 278.1253476754272 7.664284346119683
0.0154 6367.055897488935 1.000271177735782 1.549346008700258 278.0366663219255 7.617008996045704
0.0155 6367.069588986135 1.000270654157171 1.549270307695749 277.94767159012 7.569825907324376
0.0156 6367.083328734605 1.000270130053318 1.549194545828733 277.8583632250678 7.522736461377383
0.0157 6367.097116773582 1.00026960543248 1.549118723075761 277.768740971714 7.475742031019781
0.0158 6367.110953142324 1.0002690803029 1.549042839414682 277.6788045748912 7.428843980378524
0.0159 6367.124837880106 1.000268554672808 1.548966894824672 277.5885537793137 7.382043664808627
0.016 6367.138771026214 1.000268028550422 1.548890889286209 277.4979883296072 7.335342430828399
0.0161 6367.152752619955 1.000267501943944 1.548814822781083 277.4071079702911 7.288741616030679
0.0162 6367.166782700645 1.000266974861564 1.548738695292426 277.3159124458078 7.242242549019155
0.0163 6367.180861307615 1.000266447311456 1.548662506804642 277.2244015004993 7.195846549318029
0.0164 6367.194988480211 1.000265919301781 1.548586257303442 277.1325748786306 7.149554927306577
0.0165 6367.209164257784 1.000265390840684 1.548509946775898 277.0404323244019 7.103368984148172
0.0166 6367.223388679704 1.000264861936294 1.548433575210301 276.9479735819244 7.057290011702226
0.0167 6367.237661785343 1.000264332596727 1.548357142596292 276.8551983952683 7.011319292472357
0.0168 6367.251983614087 1.000263802830079 1.548280648924839 276.7621065084326 6.965458099516781
0.0169 6367.26635420533 1.000263272644432 1.548204094188148 276.6686976653572 6.919707696380204
0.017 6367.28077359847 1.000262742047853 1.548127478379754 276.5749716099466 6.874069337032047
0.0171 6367.295241832915 1.00026221104839 1.548050801494466 276.4809280860521 6.828544265785105
0.0172 6367.309758948077 1.000261679654073 1.547974063528414 276.3865668375014 6.783133717238003
0.0173 6367.324324983374 1.000261147872916 1.54789726447899 276.2918876080688 6.737838916189784
0.0174 6367.338939978227 1.000260615712917 1.547820404344875 276.1968901415229 6.692661077592272
0.0175 6367.35360397206 1.000260083182051 1.547743483126047 276.1015741816085 6.647601406471805
0.0176 6367.368317004302 1.000259550288279 1.547666500823754 276.005939472035 6.602661097854909
0.0177 6367.383079114382 1.00025901703954 1.547589457440532 275.9099857565178 6.557841336719783
0.0178 6367.397890341728 1.000258483443758 1.547512352980175 275.8137127787662 6.513143297923336
0.0179 6367.412750725774 1.000257949508833 1.547435187447756 275.7171202824719 6.468568146129293
0.018 6367.427660305945 1.000257415242649 1.547357960849633 275.6202080113561 6.424117035764407
0.0181 6367.442619121671 1.000256880653068 1.547280673193423 275.52297570914 6.379791110939847
0.0182 6367.457627212376 1.000256345747932 1.547203324488012 275.4254231195567 6.335591505392658
0.0183 6367.472684617484 1.000255810535063 1.547125914743506 275.3275499863511 6.291519342422634
0.0184 6367.487791376413 1.000255275022263 1.547048443971357 275.2293560533152 6.24757573484592
0.0185 6367.502947528576 1.00025473921731 1.546970912184184 275.1308410642531 6.203761784917482
0.0186 6367.518153113382 1.000254203127964 1.546893319395904 275.0320047630161 6.160078584286378
0.0187 6367.533408170232 1.000253666761961 1.546815665621669 274.9328468934908 6.116527213930635
0.0188 6367.548712738521 1.000253130127015 1.5467379508779 274.8333671996114 6.073108744103586
0.0189 6367.564066857636 1.00025259323082 1.546660175182232 274.7335654253651 6.029824234278379
0.019 6367.579470566956 1.000252056081044 1.546582338553549 274.6334413147864 5.986674733088289
0.0191 6367.594923905847 1.000251518685335 1.546504441011984 274.5329946119926 5.943661278285746
0.0192 6367.610426913671 1.000250981051316 1.546426482578867 274.4322250611366 5.900784896666654
0.0193 6367.625979629774 1.000250443186588 1.546348463276793 274.3311324064715 5.858046604043799
0.0194 6367.64158209349 1.000249905098727 1.546270383129581 274.2297163923157 5.81544740517811
0.0195 6367.657234344144 1.000249366795286 1.546192242162236 274.1279767630643 5.772988293731148
0.0196 6367.672936421044 1.000248828283793 1.546114040401035 274.0259132632131 5.730670252223319
0.0197 6367.688688363487 1.000248289571752 1.546035777873405 273.9235256373344 5.688494251973275
0.0198 6367.704490210755 1.000247750666641 1.545957454608056 273.8208136300954 5.646461253055585
0.0199 6367.72034200211 1.000247211575914 1.545879070634834 273.7177769862873 5.604572204263966
0.02 6367.736243776802 1.000246672307 1.545800625984817 273.6144154507841 5.562828043046475
0.0201 6367.752195574064 1.000246132867301 1.545722120690314 273.510728768584 5.521229695475521
0.0202 6367.768197433108 1.000245593264195 1.545643554784762 273.4067166847975 5.479778076197107
0.0203 6367.784249393128 1.000245053505031 1.545564928302852 273.3023789446651 5.438474088392986
