#theta R n z T P_w
0 6365.5 1.000333450708741 1.560324351282931 288.15 13.47086540523114
0.0001 6365.506698014227 1.000333123962339 1.560255291958763 288.1064629075221 13.43314613427516
0.0002 6365.513440000207 1.000332795484294 1.560186194388675 288.0626399986539 13.39527295415386
0.0003 6365.520225982492 1.000332465280922 1.560117058365644 288.0185311138029 13.35724736713354
0.0004 6365.527055985767 1.000332133358569 1.560047883683728 287.974136092513 13.31907088063889
0.0005 6365.533930034851 1.000331799723607 1.559978670138121 287.9294547734715 13.28074500717714
0.0006000000000000001 6365.540848154694 1.00033146438244 1.559909417524931 287.8844869944904 13.24227126424154
0.0007 6365.547810370377 1.000331127341501 1.55984012564152 287.8392325925482 13.20365117426511
0.0008 6365.554816707114 1.000330788607251 1.559770794286115 287.7936914037604 13.16488626451331
0.0009000000000000001 6365.561867190246 1.000330448186179 1.559701423258132 287.7478632634028 13.12597806702174
0.001 6365.568961845244 1.000330106084804 1.559632012358022 287.701748005912 13.08692811851333
0.0011 6365.576100697708 1.000329762309673 1.559562561387319 287.6553454648969 13.04773796032507
0.0012 6365.583283773368 1.000329416867359 1.559493070148527 287.608655473109 13.00840913829959
0.0013 6365.590511098078 1.000329069764465 1.559423538445394 287.5616778624961 12.96894320274612
0.0014 6365.597782697819 1.000328721007621 1.559353966082548 287.5144124641782 12.9293417083362
0.0015 6365.605098598699 1.000328370603485 1.559284352865808 287.4668591084536 12.88960621402408
0.0016 6365.612458826952 1.000328018558741 1.559214698602085 287.4190176248106 12.84973828297158
0.0017 6365.619863408936 1.0003276648801 1.55914500309921 287.370887841916 12.80973948245299
0.0018 6365.627312371132 1.000327309574302 1.559075266166282 287.3224695876442 12.76961138379392
0.0019 6365.634805740144 1.000326952648111 1.559005487613348 287.2737626890656 12.72935556227548
0.002 6365.642343542699 1.000326594108318 1.558935667251604 287.2247669724587 12.68897359705769
0.0021 6365.649925805646 1.000326233961742 1.558865804893247 287.1754822632978 12.64846707108304
0.0022 6365.657552555957 1.000325872215225 1.55879590035163 287.1259083862768 12.60783757100903
0.0023 6365.665223820722 1.000325508875638 1.558725953441187 287.0760451653094 12.56708668712071
0.0024 6365.67293962715 1.000325143949875 1.558655963977422 287.025892423523 12.52621601323829
0.0025 6365.680700002571 1.000324777444857 1.558585931776895 286.9754499832883 12.48522714665318
0.0026 6365.688504974434 1.000324409367528 1.558515856657296 286.9247176661778 12.44412168800609
0.0027 6365.696354570305 1.00032403972486 1.558445738437388 286.8736952930193 12.4029012412417
0.0028 6365.704248817866 1.000323668523846 1.558375576937065 286.822382683872 12.3615674135005
0.0029 6365.712187744916 1.000323295771507 1.55830537197723 286.7707796580443 12.320121815044
0.003 6365.72017137937 1.000322921474885 1.558235123380044 286.7188860340938 12.27856605916514
0.0031 6365.728199749256 1.00032254564105 1.558164830968575 286.6667016298333 12.23690176210325
0.0032 6365.736272882721 1.000322168277091 1.55809449456715 286.6142262623129 12.1951305429399
0.0033 6365.744390808021 1.000321789390124 1.5580241140011 286.5614597478615 12.15325402354157
0.0034 6365.752553553527 1.000321408987287 1.55795368909691 286.508401902075 12.11127382845957
0.0035 6365.760761147721 1.000321027075742 1.557883219682176 286.4550525398162 12.06919158483911
0.0036 6365.769013619196 1.000320643662671 1.557812705585595 286.4014114752266 12.02700892233748
0.0037 6365.777310996657 1.000320258755284 1.557742146636997 286.3474785217267 11.98472747303269
0.0038 6365.785653308922 1.000319872360807 1.557671542667258 286.2932534920095 11.94234887132712
0.0039 6365.794040584911 1.000319484486493 1.557600893508469 286.2387361980767 11.89987475388341
0.004 6365.80247285366 1.000319095139615 1.557530198993792 286.1839264512085 11.85730675950913
0.0041 6365.810950144309 1.000318704327468 1.557459458957481 286.1288240619937 11.81464652908739
0.004200000000000001 6365.819472486104 1.000318312057368 1.557388673235027 286.0734288403231 11.77189570547954
0.0043 6365.828039908401 1.000317918336653 1.557317841662893 286.0177405953904 11.72905593343232
0.0044 6365.836652440661 1.000317523172681 1.557246964078771 285.9617591357031 11.68612885949387
0.004500000000000001 6365.845310112449 1.00031712657283 1.557176040321539 285.9054842690833 11.64311613192037
0.0046 6365.854012953434 1.000316728544502 1.557105070231005 285.848915802679 11.60001940059152
0.0047 6365.862760993391 1.000316329095115 1.557034053648364 285.7920535429583 11.55684031691229
0.0048 6365.871554262195 1.00031592823211 1.556962990415744 285.7348972957333 11.51358053373687
0.0049 6365.880392789825 1.000315525962946 1.556891880376537 285.6774468661359 11.47024170525657
0.005 6365.889276606362 1.000315122295101 1.556820723375256 285.6197020586482 11.42682548692779
0.0051 6365.898205741985 1.000314717236075 1.556749519257524 285.5616626770956 11.38333353537304
0.005200000000000001 6365.907180226977 1.000314310793384 1.556678267870154 285.5033285246476 11.33976750828608
0.0053 6365.916200091717 1.000313902974564 1.556606969061089 285.4446994038411 11.29612906435478
0.0054 6365.925265366684 1.00031349378717 1.556535622679381 285.3857751165568 11.2524198631483
0.005500000000000001 6365.934376082455 1.000313083238773 1.556464228575326 285.3265554640428 11.20864156503949
0.0056 6365.943532269705 1.000312671336965 1.556392786600294 285.2670402469206 11.16479583111379
0.0057 6365.952733959202 1.000312258089353 1.556321296606917 285.207229265185 11.12088432307358
0.0058 6365.961981181814 1.000311843503563 1.556249758448853 285.1471223182101 11.0769087031468
0.0059 6365.971273968501 1.000311427587238 1.556178171981032 285.0867192047434 11.03287063398675
0.006 6365.980612350319 1.000311010348037 1.556106537059512 285.0260197229294 10.98877177859337
0.0061 6365.989996358415 1.000310591793637 1.556034853541498 284.9650236703036 10.94461380021268
0.006200000000000001 6365.999426024031 1.00031017193173 1.555963121285423 284.9037308437986 10.90039836224482
0.0063 6366.008901378501 1.000309750770024 1.555891340150811 284.842141039744 10.85612712814766
0.0064 6366.01842245325 1.000309328316245 1.555819509998433 284.7802540538781 10.81180176134882
0.006500000000000001 6366.027989279792 1.000308904578133 1.555747630690185 284.7180696813542 10.76742392515323
0.0066 6366.037601889732 1.000308479563441 1.555675702089223 284.6555877167401 10.7229952826464
0.0067 6366.047260314765 1.000308053279942 1.555603724059788 284.5928079540244 10.67851749660181
0.0068 6366.056964586673 1.000307625735421 1.555531696467338 284.5297301866279 10.63399222939234
0.006900000000000001 6366.066714737324 1.000307196937677 1.555459619178528 284.4663542073926 10.58942114288494
0.007 6366.076510798676 1.000306766894523 1.555387492061195 284.4026798086041 10.54480589836022
0.0071 6366.086352802772 1.000306335613788 1.55531531498438 284.3387067819812 10.50014815640697
0.007200000000000001 6366.096240781739 1.000305903103314 1.555243087818286 284.2744349186981 10.45544957684154
0.0073 6366.106174767789 1.000305469370955 1.555170810434306 284.209864009374 10.41071181860222
0.0074 6366.116154793219 1.000305034424578 1.555098482705089 284.1449938440777 10.36593653965613
0.007500000000000001 6366.126180890407 1.000304598272065 1.555026104504395 284.0798242123523 10.3211253969182
0.0076 6366.136253091816 1.000304160921309 1.55495367570724 284.0143549031967 10.27628004614141
0.0077 6366.146371429988 1.000303722380216 1.55488119618981 283.948585705078 10.23140214182765
0.007800000000000001 6366.156535937547 1.000303282656703 1.554808665829559 283.882516405943 10.18649333713826
0.007900000000000001 6366.166746647197 1.000302841758699 1.554736084505025 283.8161467932181 10.14155528379659
0.008 6366.17700359172 1.000302399694146 1.554663452096064 283.7494766538215 10.09658963199843
0.0081 6366.187306803978 1.000301956470995 1.554590768483686 283.6825057741452 10.05159803030263
0.008200000000000001 6366.197656316909 1.000301512097209 1.554518033550131 283.6152339400904 10.00658212555751
0.0083 6366.20805216353 1.000301066580761 1.554445247178839 283.5476609370561 9.961543562795395
0.008400000000000001 6366.218494376933 1.000300619929634 1.554372409254446 283.4797865499385 9.916483985135171
0.008500000000000001 6366.228982990284 1.000300172151822 1.554299519662868 283.411610563155 9.87140503370062
0.0086 6366.239518036828 1.000299723255329 1.554226578291161 283.3431327606207 9.826308347507362
0.008700000000000001 6366.250099549879 1.000299273248166 1.554153585027626 283.2743529257835 9.781195563388946
0.008800000000000001 6366.260727562828 1.000298822138356 1.554080539761809 283.2052708416185 9.736068315895569
0.0089 6366.271402109135 1.00029836993393 1.554007442384419 283.1358862906217 9.690928237192967
0.009000000000000001 6366.282123222333 1.000297916642925 1.553934292787474 283.0661990548341 9.645776956980656
0.0091 6366.292890936026 1.000297462273391 1.553861090864126 282.9962089158297 9.600616102387098
0.0092 6366.303705283888 1.000297006833381 1.553787836508833 282.9259156547272 9.555447297880352
0.009300000000000001 6366.314566299662 1.000296550330959 1.553714529617193 282.855319052196 9.510272165174907
0.0094 6366.325474017161 1.000296092774196 1.553641170086106 282.7844188884563 9.465092323134845
0.0095 6366.336428470262 1.000295634171168 1.553567757813652 282.7132149432967 9.419909387688378
0.009600000000000001 6366.347429692913 1.00029517452996 1.553494292699186 282.6417069960684 9.374724971727366
0.0097 6366.358477719124 1.000294713858662 1.553420774643263 282.5698948256967 9.329540685018259
0.0098 6366.369572582974 1.000294252165371 1.553347203547684 282.4977782106697 9.284358134098254
0.009900000000000001 6366.380714318605 1.000293789458191 1.553273579315486 282.4253569290676 9.239178922197581
0.01 6366.391902960223 1.000293325745228 1.553199901850914 282.3526307585506 9.194004649135902
0.0101 6366.403138542099 1.000292861034597 1.55312617105951 282.2795994763595 9.14883691122637
0.0102 6366.41442109856 1.000292395334416 1.55305238684796 282.2062628593625 9.103677301209013
0.0103 6366.425750664001 1.000291928652808 1.552978549124306 282.1326206839902 9.058527408114839
0.0104 6366.437127272876 1.000291460997902 1.552904657797721 282.058672726307 9.013388817214055
0.0105 6366.448550959697 1.000290992377827 1.5528307127787 281.9844187619691 8.96826310989527
0.0106 6366.460021759038 1.00029052280072 1.552756713978911 281.9098585662545 8.923151863588453
0.0107 6366.471539705527 1.00029005227472 1.552682661311339 281.8349919140745 8.878056651677014
0.0108 6366.483104833855 1.000289580807968 1.552608554690147 281.7598185799446 8.832979043385196
0.0109 6366.494717178764 1.000289108408609 1.55253439403075 281.6843383380314 8.787920603712012
0.011 6366.506376775058 1.000288635084792 1.552460179249851 281.6085509621229 8.742882893319125
0.0111 6366.518083657591 1.000288160844664 1.55238591026537 281.5324562256586 8.697867468454392
0.0112 6366.529837861274 1.000287685696378 1.55231158699649 281.4560539017174 8.652875880850928
0.0113 6366.541639421071 1.000287209648088 1.552237209363606 281.379343763041 8.607909677647408
0.0114 6366.553488371997 1.000286732707948 1.55216277728836 281.3023255820166 8.562970401284213
0.0115 6366.565384749125 1.000286254884112 1.552088290693691 281.2249991306884 8.518059589417325
0.0116 6366.577328587571 1.000285776184738 1.552013749503765 281.1473641807873 8.473178774842594
0.0117 6366.589319922507 1.000285296617982 1.551939153643993 281.0694205037015 8.428329485385925
0.0118 6366.601358789154 1.000284816192001 1.551864503040995 280.9911678704997 8.383513243824705
0.0119 6366.61344522278 1.000284334914952 1.551789797622713 280.9126060519314 8.338731567795753
0.012 6366.625579258703 1.00028385279499 1.551715037318281 280.8337348184331 8.293985969706984
0.0121 6366.637760932286 1.000283369840271 1.551640222058118 280.7545539401393 8.249277956652694
0.0122 6366.649990278941 1.000282886058948 1.551565351773911 280.6750631868834 8.204609030322397
0.0123 6366.662267334124 1.000282401459175 1.55149042639851 280.5952623281913 8.159980686906769
0.0124 6366.674592133337 1.000281916049103 1.551415445866103 280.515151133311 8.11539441702377
0.0125 6366.686964712124 1.000281429836879 1.551340410112136 280.4347293711947 8.070851705618585
0.0126 6366.699385106076 1.000280942830651 1.551265319073219 280.3539968105055 8.026354031877261
0.0127 6366.711853350825 1.000280455038562 1.551190172687275 280.2729532196398 7.98190286915037
0.0128 6366.724369482042 1.000279966468753 1.551114970893491 280.1915983667285 7.937499684863878
0.0129 6366.736933535441 1.000279477129362 1.551039713632254 280.1099320196303 7.893145940427224
0.013 6366.749545546779 1.000278987028522 1.550964400845243 280.0279539459378 7.848843091148349
0.0131 6366.762205551848 1.000278496174364 1.550889032475364 279.9456639129897 7.804592586152237
0.0132 6366.774913586481 1.000278004575013 1.550813608466788 279.8630616878762 7.760395868296599
0.0133 6366.787669686547 1.00027751223859 1.550738128764948 279.7801470374451 7.716254374087926
0.0134 6366.800473887954 1.000277019173212 1.550662593316503 279.6969197283019 7.672169533594814
0.0135 6366.813326226645 1.000276525386989 1.550587002069356 279.6133795268096 7.628142770361791
0.0136 6366.826226738599 1.000276030888028 1.550511354972663 279.5295261991067 7.58417550133291
0.0137 6366.83917545983 1.000275535684428 1.550435651976863 279.4453595111071 7.540269136766345
0.0138 6366.852172426385 1.000275039784284 1.550359893033596 279.3608792284998 7.496425080149516
0.0139 6366.865217674344 1.000274543195683 1.55028407809576 279.2760851167671 7.45264472812386
0.014 6366.878311239819 1.000274045926704 1.550208207117554 279.1909769411785 7.408929470397749
0.0141 6366.891453158954 1.000273547985423 1.55013228005434 279.1055544667964 7.365280689666083
0.0142 6366.904643467926 1.000273049379906 1.550056296862789 279.0198174584824 7.321699761530313
0.0143 6366.917882202937 1.000272550118211 1.549980257500766 278.9337656809088 7.278188054421951
0.0144 6366.931169400223 1.000272050208389 1.549904161927437 278.8473988985528 7.234746929517533
0.0145 6366.944505096044 1.000271549658484 1.549828010103132 278.7607168757144 7.191377740666071
0.0146 6366.957889326692 1.000271048476528 1.549751801989518 278.6737193765042 7.148081834302135
0.0147 6366.971322128481 1.000270546670548 1.549675537549414 278.5864061648734 7.104860549380151
0.0148 6366.984803537755 1.000270044248559 1.549599216746967 278.4987770045899 7.061715217282694
0.0149 6366.998333590882 1.000269541218567 1.549522839547482 278.4108316592677 7.018647161755783
0.015 6367.011912324253 1.000269037588571 1.549446405917555 278.3225698923555 6.975657698824188
0.0151 6367.025539774284 1.000268533366556 1.549369915824976 278.2339914671542 6.932748136721863
0.0152 6367.039215977414 1.000268028560499 1.549293369238824 278.1450961468107 6.889919775811365
0.0153 6367.052940970103 1.000267523178365 1.549216766129356 278.0558836943304 6.847173908512482
0.0154 6367.066714788834 1.00026701722811 1.549140106468079 277.9663538725766 6.804511819225711
0.0155 6367.080537470109 1.000266510717676 1.549063390227768 277.8765064442886 6.761934784264784
0.0156 6367.09440905045 1.000266003654996 1.54898661738239 277.7863411720754 6.719444071778467
0.0157 6367.108329566398 1.000265496047989 1.548909787907163 277.6958578184161 6.677040941675894
0.0158 6367.12229905451 1.000264987904564 1.548832901778486 277.6050561456835 6.634726645563575
0.0159 6367.136317551367 1.000264479232614 1.548755958974039 277.5139359161143 6.592502426658148
0.016 6367.150385093561 1.000263970040024 1.548678959472702 277.4224968918564 6.550369519735601
0.0161 6367.164501717699 1.000263460334662 1.548601903254562 277.3307388349575 6.508329151053457
0.0162 6367.178667460406 1.000262950124384 1.548524790300968 277.2386615073586 6.466382538276551
0.0163 6367.192882358323 1.000262439417033 1.548447620594429 277.1462646709005 6.424530890408966
0.0164 6367.207146448101 1.000261928220436 1.548370394118715 277.0535480873467 6.38277540773457
0.0165 6367.221459766403 1.000261416542408 1.548293110858811 276.9605115183784 6.341117281744742
0.0166 6367.235822349908 1.000260904390749 1.548215770800884 276.8671547255998 6.29955769507217
0.0167 6367.250234235303 1.000260391773242 1.548138373932338 276.7734774705322 6.258097821420116
0.0168 6367.264695459287 1.000259878697659 1.548060920241754 276.6794795146319 6.216738825502907
0.0169 6367.279206058569 1.000259365171751 1.54798340971897 276.5851606193022 6.175481862984338
0.017 6367.293766069865 1.000258851203258 1.547905842354987 276.4905205458753 6.134328080403871
0.0171 6367.308375529901 1.000258336799902 1.547828218142017 276.3955590556419 6.093278615124273
0.0172 6367.32303447541 1.00025782196939 1.547750537073456 276.3002759098339 6.052334595259333
0.0173 6367.337742943131 1.000257306719409 1.547672799143961 276.2046708696474 6.011497139620286
0.0174 6367.352500969811 1.000256791057633 1.547595004349289 276.1087436962315 5.970767357647659
0.0175 6367.367308592198 1.000256274991717 1.547517152686467 276.0124941507114 5.930146349359054
0.0176 6367.38216584705 1.000255758529298 1.547439244153674 275.915921994177 5.889635205282551
0.0177 6367.397072771123 1.000255241677998 1.547361278750277 275.8190269877003 5.849235006403426
0.0178 6367.41202940118 1.000254724445418 1.547283256476836 275.7218088923299 5.80894682410165
0.0179 6367.427035773986 1.000254206839141 1.547205177335093 275.6242674690906 5.768771720092774
0.018 6367.442091926304 1.000253688866733 1.547127041327972 275.5264024790248 5.728710746386549
0.0181 6367.4571978949 1.000253170535741 1.547048848459558 275.4282136831515 5.688764945212207
0.0182 6367.472353716541 1.000252651853692 1.546970598735103 275.3297008424837 5.648935348969084
0.0183 6367.487559427991 1.000252132828092 1.546892292161094 275.230863718058 5.609222980182563
0.0184 6367.502815066014 1.000251613466431 1.546813928745098 275.131702070911 5.569628851439306
0.0185 6367.51812066737 1.000251093776177 1.546735508495887 275.0322156620972 5.530153965340073
0.0186 6367.533476268817 1.000250573764777 1.546657031423405 274.9324042526886 5.490799314446221
0.0187 6367.548881907111 1.000250053439659 1.546578497538734 274.8322676037809 5.451565881229405
0.0188 6367.564337618999 1.00024953280823 1.546499906854122 274.7318054765054 5.412454638024403
0.0189 6367.579843441228 1.000249011877876 1.546421259382949 274.631017632017 5.373466546973557
0.019 6367.595399410535 1.000248490655961 1.546342555139779 274.5299038315237 5.33460255998817
0.0191 6367.611005563652 1.000247969149828 1.546263794140296 274.4284638362632 5.295863618690148
0.0192 6367.626661937304 1.000247447366797 1.54618497640133 274.3266974075262 5.257250654372805
0.0193 6367.642368568206 1.000246925314169 1.546106101940852 274.2246043066629 5.218764587955603
0.0194 6367.658125493066 1.000246402999219 1.546027170777934 274.1221842950703 5.18040632993313
0.0195 6367.673932748583 1.000245880429202 1.54594818293285 274.0194371342108 5.142176780336178
0.0196 6367.689790371443 1.000245357611349 1.545869138426944 273.9163625856175 5.10407682868915
0.0197 6367.705698398324 1.000244834552868 1.545790037282688 273.8129604108948 5.066107353966203
0.0198 6367.72165686589 1.000244311260944 1.545710879523712 273.7092303717176 5.028269224548344
0.0199 6367.737665810793 1.000243787742738 1.545631665174714 273.6051722298438 4.990563298185792
0.02 6367.753725269674 1.000243264005388 1.545552394261533 273.5007857471199 4.95299042195902
0.0201 6367.769835279157 1.000242740056007 1.545473066811128 273.3960706854813 4.915551432238596
0.0202 6367.785995875852 1.000242215901685 1.545393682851494 273.2910268069635 4.878247154650219
0.0203 6367.802207096356 1.000241691549485 1.545314242411831 273.1856538736851 4.841078404030165
