#theta R n z T P_w
0 6365.5 1.000308145871603 1.560324351282931 288.15 7.843795046083955
0.0001 6365.506698014227 1.000307882336833 1.560249299793665 288.1064629075221 7.821831926286801
0.0002 6365.513443814955 1.00030761719925 1.560174222863704 288.0626152027907 7.799766726097376
0.0003 6365.52023741861 1.000307350463759 1.560099120332366 288.0184567790342 7.777600440027014
0.0004 6365.527078841717 1.000307082135288 1.56002399203996 287.9739875288368 7.755334066295747
0.0005 6365.53396810091 1.000306812218794 1.559948837827414 287.9292073440851 7.732968606742841
0.0006000000000000001 6365.540905212923 1.000306540719255 1.559873657536595 287.8841161160034 7.710505066781601
0.0007 6365.547890194593 1.000306267641677 1.559798451010113 287.8387137351482 7.687944455333161
0.0008 6365.554923062859 1.000305992991089 1.559723218091401 287.7930000914197 7.665287784768845
0.0009000000000000001 6365.562003834762 1.000305716772545 1.559647958624749 287.7469750740501 7.642536070840551
0.001 6365.569132527442 1.000305438991125 1.559572672455098 287.7006385716271 7.619690332628474
0.0011 6365.576309158143 1.00030515965193 1.559497359428362 287.6539904720706 7.596751592465179
0.0012 6365.583533744205 1.000304878760089 1.559422019391144 287.6070306626679 7.573720875888637
0.0013 6365.590806303069 1.000304596320751 1.559346652190902 287.5597590300498 7.550599211565865
0.0014 6365.598126852277 1.000304312339092 1.559271257675836 287.5121754601972 7.527387631230952
0.0015 6365.605495409466 1.000304026820309 1.559195835694995 287.4642798384701 7.504087169634348
0.0016 6365.612911992373 1.000303739769624 1.559120386098211 287.4160720495723 7.480698864460177
0.0017 6365.620376618833 1.000303451192283 1.559044908736092 287.3675519775869 7.457223756277955
0.0018 6365.627889306775 1.000303161093552 1.558969403460106 287.3187195059644 7.433662888471024
0.0019 6365.635450074226 1.000302869478723 1.5588938701224 287.2695745175287 7.410017307173419
0.002 6365.643058939311 1.000302576353109 1.558818308576056 287.220116894477 7.386288061203687
0.0021 6365.650715920247 1.000302281722046 1.558742718674867 287.1703465183917 7.362476202004169
0.0022 6365.65842103535 1.000301985590892 1.558667100273388 287.1202632702228 7.338582783565933
0.0023 6365.666174303025 1.000301687965027 1.55859145322711 287.0698670303349 7.314608862384584
0.0024 6365.673975741775 1.000301388849854 1.558515777392187 287.0191576784599 7.29055549737071
0.0025 6365.681825370196 1.000301088250797 1.558440072625646 286.968135093727 7.266423749796865
0.0026 6365.689723206973 1.0003007861733 1.558364338785309 286.9167991546741 7.242214683235791
0.0027 6365.697669270889 1.000300482622832 1.558288575729711 286.8651497392242 7.217929363481749
0.0028 6365.705663580814 1.000300177604881 1.558212783318302 286.8131867247092 7.193568858494043
0.0029 6365.713706155714 1.000299871124955 1.558136961411292 286.7609099878581 7.169134238323628
0.003 6365.721797014642 1.000299563188585 1.558061109869637 286.7083194048263 7.144626575058975
0.0031 6365.729936176744 1.000299253801321 1.55798522855513 286.6554148511663 7.120046942744102
0.0032 6365.738123661254 1.000298942968735 1.557909317330434 286.6021962018511 7.095396417321337
0.0033 6365.746359487495 1.000298630696419 1.557833376058874 286.5486633312806 7.070676076565605
0.0034 6365.754643674882 1.000298316989983 1.557757404604712 286.4948161132692 7.045887000010361
0.0035 6365.762976242913 1.000298001855058 1.557681402832959 286.4406544210636 7.021030268887084
0.0036 6365.771357211181 1.000297685297297 1.557605370609382 286.3861781273257 6.996106966048298
0.0037 6365.779786599359 1.000297367322369 1.557529307800639 286.3313871041672 6.971118175914861
0.0038 6365.788264427211 1.000297047935965 1.557453214274128 286.2762812231266 6.946064984396036
0.0039 6365.796790714588 1.000296727143793 1.557377089898113 286.2208603551807 6.920948478825704
0.004 6365.805365481422 1.00029640495158 1.557300934541619 286.1651243707564 6.895769747898392
0.0041 6365.813988747736 1.000296081365074 1.557224748074486 286.1090731397134 6.87052988159183
0.004200000000000001 6365.822660533636 1.00029575639004 1.557148530367342 286.0527065313671 6.845229971108123
0.0043 6365.83138085931 1.000295430032259 1.557072281291723 285.9960244144835 6.819871108801433
0.0044 6365.840149745031 1.000295102297535 1.55699600071984 285.9390266572963 6.794454388116192
0.004500000000000001 6365.848967211156 1.000294773191687 1.556919688524812 285.8817131274835 6.768980903506709
0.0046 6365.857833278125 1.00029444272055 1.556843344580555 285.8240836921854 6.743451750375239
0.0047 6365.866747966458 1.00029411088998 1.556766968761798 285.7661382180216 6.717868025009844
0.0048 6365.87571129676 1.000293777705848 1.556690560944036 285.7078765710625 6.692230824501263
0.0049 6365.884723289712 1.000293443174043 1.556614121003659 285.6492986168695 6.666541246691065
0.005 6365.893783966082 1.00029310730047 1.556537648817798 285.5904042204664 6.640800390088446
0.0051 6365.902893346714 1.000292770091053 1.556461144264463 285.5311932463568 6.615009353807798
0.005200000000000001 6365.912051452533 1.000292431551729 1.556384607222464 285.4716655585356 6.589169237503568
0.0053 6365.921258304542 1.000292091688455 1.556308037571408 285.4118210204778 6.56328114129474
0.0054 6365.930513923825 1.000291750507199 1.556231435191762 285.3516594951378 6.537346165694506
0.005500000000000001 6365.939818331541 1.000291408013951 1.556154799964793 285.2911808449857 6.511365411555137
0.0056 6365.949171548928 1.000291064214712 1.556078131772591 285.230384931965 6.485339979979687
0.0057 6365.958573597303 1.000290719115499 1.55600143049808 285.1692716175288 6.459270972266781
0.0058 6365.968024498056 1.000290372722347 1.555924696025016 285.1078407626336 6.433159489837537
0.0059 6365.977524272656 1.000290025041303 1.55584792823795 285.0460922277392 6.407006634165049
0.006 6365.987072942644 1.000289676078431 1.555771127022329 284.9840258728149 6.380813506706362
0.0061 6365.996670529639 1.000289325839807 1.555694292264319 284.921641557345 6.354581208834427
0.006200000000000001 6366.006317055334 1.000288974331523 1.555617423851015 284.8589391403292 6.328310841767541
0.0063 6366.016012541495 1.000288621559686 1.555540521670301 284.7959184802825 6.302003506498816
0.0064 6366.025757009961 1.000288267530416 1.555463585610925 284.7325794352527 6.275660303733062
0.006500000000000001 6366.035550482646 1.000287912249845 1.555386615562437 284.6689218628029 6.24928233380885
0.0066 6366.045392981533 1.000287555724121 1.555309611415185 284.6049456200352 6.222870696637858
0.0067 6366.05528452868 1.000287197959404 1.555232573060458 284.5406505635787 6.19642649162948
0.0068 6366.065225146215 1.000286838961868 1.555155500390288 284.4760365496012 6.169950817625261
0.006900000000000001 6366.075214856337 1.000286478737699 1.555078393297577 284.4111034338097 6.143444772828488
0.007 6366.085253681314 1.000286117293097 1.555001251676055 284.3458510714617 6.116909454738632
0.0071 6366.095341643484 1.00028575463427 1.554924075420336 284.2802793173536 6.090345960076197
0.007200000000000001 6366.105478765256 1.000285390767445 1.554846864425822 284.2143880258385 6.063755384719653
0.0073 6366.115665069105 1.000285025698856 1.554769618588763 284.1481770508202 6.037138823632819
0.0074 6366.125900577576 1.000284659434749 1.554692337806278 284.0816462457532 6.010497370794741
0.007500000000000001 6366.136185313283 1.000284291981385 1.554615021976278 284.0147954636603 5.983832119136716
0.0076 6366.146519298903 1.000283923345032 1.554537670997612 283.9476245571331 5.957144160472243
0.0077 6366.156902557182 1.000283553531973 1.554460284769873 283.8801333783193 5.930434585422383
0.007800000000000001 6366.167335110931 1.000283182548499 1.554382863193539 283.8123217789474 5.903704483355311
0.007900000000000001 6366.177816983028 1.000282810400912 1.554305406169963 283.7441896103199 5.876954942314186
0.008 6366.188348196413 1.000282437095525 1.554227913601319 283.6757367233139 5.850187048947487
0.0081 6366.198928774094 1.000282062638663 1.554150385390613 283.6069629683865 5.823401888441799
0.008200000000000001 6366.20955873914 1.000281687036657 1.554072821441731 283.5378681955871 5.796600544456936
0.0083 6366.220238114685 1.000281310295852 1.553995221659374 283.4684522545452 5.769784099052012
0.008400000000000001 6366.230966923925 1.000280932422599 1.553917585949162 283.3987149944886 5.742953632623094
0.008500000000000001 6366.241745190116 1.00028055342326 1.55383991421749 283.3286562642428 5.716110223834054
0.0086 6366.252572936582 1.000280173304207 1.553762206371627 283.2582759122196 5.689254949543097
0.008700000000000001 6366.263450186701 1.000279792071818 1.553684462319727 283.1875737864465 5.662388884745235
0.008800000000000001 6366.274376963915 1.000279409732482 1.553606681970778 283.116549734555 5.635513102499036
0.0089 6366.285353291725 1.000279026292596 1.553528865234603 283.0452036037863 5.608628673860323
0.009000000000000001 6366.296379193695 1.000278641758565 1.553451012021896 282.9735352409856 5.581736667811558
0.0091 6366.307454693442 1.000278256136801 1.553373122244208 282.9015444926257 5.554838151202522
0.0092 6366.318579814648 1.000277869433726 1.553295195813968 282.8292312047892 5.527934188675555
0.009300000000000001 6366.329754581046 1.000277481655767 1.553217232644437 282.7565952231979 5.50102584260868
0.0094 6366.340979016433 1.000277092809359 1.553139232649707 282.6836363931837 5.474114173036864
0.0095 6366.352253144658 1.000276702900947 1.553061195744758 282.6103545597238 5.447200237597625
0.009600000000000001 6366.363576989627 1.000276311936976 1.552983121845484 282.5367495674226 5.420285091457072
0.0097 6366.374950575304 1.000275919923906 1.552905010868546 282.4628212605243 5.393369787247103
0.0098 6366.386373925708 1.000275526868196 1.552826862731485 282.3885694829004 5.366455374994137
0.009900000000000001 6366.397847064909 1.000275132776316 1.552748677352748 282.3139940780915 5.339542902067374
0.01 6366.409370017035 1.00027473765474 1.552670454651622 282.2390948892715 5.312633413099318
0.0101 6366.420942806266 1.000274341509948 1.552592194548206 282.1638717592717 5.285727949928012
0.0102 6366.432565456836 1.000273944348424 1.552513896963536 282.0883245305685 5.258827551526664
0.0103 6366.44423799303 1.00027354617666 1.552435561819467 282.0124530453071 5.231933253946208
0.0104 6366.455960439185 1.000273147001152 1.552357189038713 281.9362571452961 5.205046090247482
0.0105 6366.467732819691 1.000272746828399 1.552278778544853 281.8597366720068 5.178167090435802
0.0106 6366.479555158988 1.000272345664906 1.552200330262374 281.7828914665796 5.151297281397873
0.0107 6366.491427481565 1.000271943517183 1.55212184411656 281.7057213698298 5.124437686838923
0.0108 6366.503349811963 1.000271540391743 1.552043320033587 281.6282262222416 5.097589327215965
0.0109 6366.515322174771 1.000271136295104 1.551964757940506 281.5504058639916 5.070753219681593
0.011 6366.527344594625 1.000270731233784 1.551886157765224 281.4722601349375 5.043930378015689
0.0111 6366.539417096214 1.00027032521431 1.551807519436484 281.3937888746117 5.017121812559558
0.0112 6366.551539704268 1.000269918243209 1.551728842883936 281.3149919222568 4.990328530164471
0.0113 6366.56371244357 1.000269510327009 1.551650128038072 281.2358691167964 4.963551534118224
0.0114 6366.575935338946 1.000269101472246 1.551571374830241 281.1564202968524 4.936791824088179
0.0115 6366.588208415268 1.000268691685453 1.551492583192702 281.0766453007571 4.910050396062504
0.0116 6366.600531697455 1.00026828097317 1.551413753058488 280.9965439665415 4.883328242283739
0.0117 6366.612905210471 1.000267869341935 1.551334884361561 280.9161161319406 4.856626351188693
0.0118 6366.625328979322 1.00026745679829 1.55125597703676 280.835361634406 4.829945707350575
0.0119 6366.637803029061 1.000267043348779 1.551177031019748 280.7542803111054 4.803287291417486
0.012 6366.65032738478 1.000266628999945 1.551098046247043 280.6728719989286 4.776652080053171
0.0121 6366.662902071618 1.000266213758335 1.551019022656088 280.5911365344817 4.750041045874266
0.0122 6366.675527114753 1.000265797630496 1.550939960185115 280.5090737541049 4.723455157395576
0.0123 6366.688202539406 1.000265380622973 1.550860858773302 280.4266834938602 4.696895378966068
0.0124 6366.700928370838 1.000264962742316 1.550781718360597 280.3439655895498 4.670362670714805
0.0125 6366.713704634352 1.000264543995071 1.550702538887886 280.2609198767099 4.643857988489558
0.0126 6366.726531355291 1.000264124387787 1.550623320296847 280.1775461906103 4.617382283797739
0.0127 6366.739408559035 1.000263703927011 1.550544062530108 280.0938443662729 4.590936503753315
0.0128 6366.752336271005 1.000263282619291 1.550464765531081 280.0098142384653 4.56452159101653
0.0129 6366.765314516661 1.000262860471173 1.550385429244078 279.9254556417067 4.538138483737788
0.013 6366.778343321496 1.000262437489203 1.550306053614258 279.8407684102739 4.511788115501872
0.0131 6366.791422711048 1.000262013679925 1.550226638587643 279.7557523781896 4.485471415267059
0.0132 6366.804552710884 1.000261589049882 1.55014718411113 279.670407379252 4.459189307317467
0.0133 6366.817733346612 1.000261163605616 1.550067690132442 279.5847332470224 4.432942711202911
0.0134 6366.830964643874 1.000260737353666 1.549988156600195 279.4987298148202 4.406732541681096
0.0135 6366.844246628347 1.00026031030057 1.549908583463848 279.4123969157457 4.380559708669235
0.0136 6366.857579325742 1.000259882452864 1.549828970673686 279.3257343826748 4.354425117186999
0.0137 6366.870962761806 1.000259453817081 1.549749318180921 279.2387420482586 4.328329667301739
0.0138 6366.884396962317 1.000259024399751 1.549669625937566 279.1514197449413 4.302274254079438
0.0139 6366.897881953087 1.000258594207401 1.549589893896495 279.0637673049367 4.276259767523697
0.014 6366.911417759959 1.000258163246556 1.549510122011478 278.9757845602634 4.250287092532822
0.0141 6366.925004408812 1.000257731523736 1.549430310237069 278.8874713427211 4.224357108839729
0.0142 6366.938641925552 1.00025729904546 1.549350458528731 278.7988274839148 4.198470690966323
0.0143 6366.952330336116 1.00025686581824 1.549270566842764 278.7098528152482 4.172628708169562
0.0144 6366.966069666473 1.000256431848586 1.549190635136318 278.620547167924 4.146832024389774
0.0145 6366.979859942622 1.000255997143004 1.549110663367359 278.5309103729559 4.121081498202845
0.0146 6366.993701190589 1.000255561707993 1.549030651494787 278.4409422611742 4.095377982771108
0.0147 6367.007593436429 1.000255125550052 1.548950599478252 278.3506426632083 4.069722325787978
0.0148 6367.021536706227 1.00025468867567 1.548870507278318 278.260011409522 4.044115369438245
0.0149 6367.035531026094 1.000254251091335 1.548790374856389 278.16904833039 4.018557950341979
0.015 6367.049576422166 1.000253812803527 1.548710202174672 278.0777532559213 3.993050899512359
0.0151 6367.06367292061 1.000253373818722 1.548629989196256 277.9861260160359 3.967595042300681
0.0152 6367.077820547615 1.000252934143389 1.548549735885042 277.8941664405 3.942191198358418
0.0153 6367.092019329397 1.000252493783993 1.548469442205825 277.8018743589204 3.916840181588124
0.0154 6367.106269292198 1.000252052746991 1.548389108124177 277.7092496007143 3.891542800088495
0.0155 6367.120570462282 1.000251611038834 1.548308733606566 277.6162919951693 3.866299856124266
0.0156 6367.134922865937 1.000251168665968 1.548228318620243 277.5230013714071 3.841112146070619
0.0157 6367.149326529478 1.000250725634829 1.548147863133334 277.4293775583959 3.815980460371148
0.0158 6367.163781479237 1.00025028195185 1.548067367114796 277.335420384962 3.790905583496245
0.0159 6367.178287741571 1.000249837623453 1.547986830534406 277.2411296797899 3.765888293898835
0.016 6367.192845342859 1.000249392656056 1.547906253362768 277.146505271416 3.740929363969092
0.0161 6367.207454309501 1.000248947056067 1.547825635571352 277.0515469882411 3.716029559994436
0.0162 6367.222114667919 1.000248500829887 1.547744977132407 276.9562546585238 3.691189642115368
0.0163 6367.236826444552 1.000248053983908 1.547664278019042 276.8606281104106 3.666410364291111
0.0164 6367.251589665861 1.000247606524517 1.547583538205182 276.7646671719061 3.641692474250371
0.0165 6367.266404358323 1.000247158458089 1.547502757665609 276.6683716709025 3.61703671345805
0.0166 6367.281270548438 1.000246709790991 1.54742193637586 276.571741435156 3.592443817068776
0.0167 6367.296188262721 1.000246260529583 1.547341074312323 276.4747762923165 3.567914513894668
0.0168 6367.311157527705 1.000245810680214 1.54726017145225 276.3774760699156 3.543449526363045
0.0169 6367.326178369942 1.000245360249225 1.54717922777364 276.2798405953785 3.519049570480748
0.017 6367.341250815995 1.000244909242948 1.547098243255373 276.1818696960298 3.494715355797493
0.0171 6367.356374892451 1.000244457667704 1.547017217877073 276.0835631990702 3.470447585362507
0.0172 6367.371550625905 1.000244005529805 1.546936151619208 275.9849209316175 3.446246955697899
0.0173 6367.386778042971 1.000243552835552 1.546855044463105 275.8859427206888 3.422114156757907
0.0174 6367.402057170277 1.000243099591237 1.54677389639082 275.7866283932011 3.398049871893211
0.0175 6367.417388034464 1.000242645803142 1.546692707385244 275.6869777759824 3.374054777818716
0.0176 6367.432770662187 1.000242191477536 1.54661147743011 275.586990695784 3.350129544581852
0.0177 6367.448205080113 1.000241736620681 1.546530206509883 275.4866669792685 3.326274835525803
0.0178 6367.463691314922 1.000241281238825 1.546448894609883 275.3860064530098 3.302491307256262
0.0179 6367.479229393305 1.000240825338206 1.546367541716204 275.2850089435168 3.278779609614372
0.018 6367.494819341967 1.00024036892505 1.546286147815739 275.1836742772156 3.255140385640463
0.0181 6367.510461187622 1.000239912005572 1.546204712896185 275.0820022804554 3.231574271544071
0.0182 6367.526154956994 1.000239454585975 1.546123236946009 274.9799927795383 3.208081896679987
0.0183 6367.541900676818 1.000238996672452 1.546041719954485 274.8776456006834 3.184663883509862
0.0184 6367.557698373837 1.000238538271181 1.54596016191165 274.7749605700568 3.161320847579526
0.0185 6367.573548074805 1.000238079388329 1.545878562808344 274.6719375137653 3.138053397488718
0.0186 6367.589449806482 1.000237620030051 1.545796922636222 274.5685762578686 3.114862134865514
0.0187 6367.605403595636 1.00023716020249 1.545715241387656 274.4648766283671 3.09174765433605
0.0188 6367.621409469045 1.000236699911774 1.54563351905581 274.360838451208 3.068710543498952
0.0189 6367.637467453492 1.00023623916402 1.545551755634659 274.2564615523032 3.045751382902966
0.019 6367.653577575766 1.000235777965331 1.54546995111891 274.1517457575231 3.022870746019981
0.0191 6367.669739862662 1.000235316321798 1.545388105504051 274.0466908926968 3.000069199220047
0.0192 6367.685954340982 1.000234854239496 1.545306218786354 273.9412967836178 2.977347301748358
0.0193 6367.702221037532 1.00023439172449 1.545224290962833 273.8355632560441 2.954705605701608
0.0194 6367.718539979123 1.000233928782827 1.545142322031246 273.7294901356985 2.932144656005033
0.0195 6367.734911192569 1.000233465420544 1.545060311990189 273.6230772483035 2.909664990397622
0.0196 6367.751334704687 1.00023300164366 1.544978260838925 273.5163244195345 2.887267139400401
0.0197 6367.767810542299 1.000232537458184 1.54489616857751 273.409231475055 2.864951626303022
0.0198 6367.784338732229 1.000232072870107 1.544814035206756 273.3017982405107 2.842718967142202
0.0199 6367.800919301303 1.000231607885407 1.544731860728199 273.1940245415298 2.820569670682131
0.02 6367.817552276348 1.000231142510047 1.54464964514413 273.0859102037401 2.798504238399197
0.0201 6367.834237684191 1.000230676749976 1.544567388457602 272.977455052758 2.776523164461292
0.0202 6367.850975551662 1.000230210611125 1.544485090672405 272.8686589141938 2.754626935711484
0.0203 6367.867765905591 1.000229744099414 1.544402751793012 272.7595216136577 2.732816031652356
