#theta R n z T P_w
0 6365.5 1.000337284774974 1.560324351282931 288.15 14.32345182328374
0.0001 6365.506698014227 1.000336948451052 1.560256200133364 288.1064629075221 14.28334525669763
0.0002 6365.513439422042 1.000336610382237 1.560188008793986 288.0626437567256 14.24307848898708
0.0003 6365.520224249231 1.000336270575005 1.560119777052193 288.0185423799957 14.20265308435102
0.0004 6365.527052521718 1.000335929035861 1.560051504696322 287.9741586088306 14.16207061230331
0.0005 6365.533924265562 1.000335585771339 1.559983191515856 287.929492273848 14.12133264759606
0.0006000000000000001 6365.540839506957 1.000335240788004 1.55991483730138 287.8845432047787 14.08044077013171
0.0007 6365.547798272234 1.000334894092449 1.559846441844577 287.8393112304783 14.03939656489095
0.0008 6365.554800587856 1.000334545691297 1.559778004938231 287.7937961789338 13.99820162185478
0.0009000000000000001 6365.561846480422 1.000334195591201 1.559709526376152 287.747997877257 13.95685753591548
0.001 6365.568935976661 1.000333843798841 1.559641005953308 287.7019161517027 13.91536590680862
0.0011 6365.576069103437 1.000333490320926 1.559572443465715 287.6555508276623 13.87372833902321
0.0012 6365.583245887741 1.000333135164195 1.55950383871055 287.6089017296821 13.83194644173285
0.0013 6365.590466356699 1.000332778335413 1.559435191486048 287.561968681457 13.7900218287051
0.0014 6365.597730537565 1.000332419841375 1.559366501591494 287.5147515058305 13.74795611821597
0.0015 6365.605038457722 1.000332059688902 1.559297768827395 287.467250024807 13.7057509329745
0.0016 6365.612390144684 1.000331697884845 1.559228992995247 287.4194640595568 13.66340790004169
0.0017 6365.619785626091 1.000331334436081 1.559160173897687 287.3713934304113 13.62092865073854
0.0018 6365.627224929709 1.000330969349514 1.559091311338493 287.3230379568917 13.57831482058511
0.0019 6365.634708083434 1.000330602632074 1.55902240512255 287.2743974576796 13.53556804918698
0.002 6365.642235115284 1.000330234290722 1.558953455055797 287.2254717506529 13.49268998017874
0.0021 6365.649806053405 1.00032986433244 1.558884460945306 287.1762606528677 13.44968226112018
0.0022 6365.657420926066 1.000329492764241 1.55881542259932 287.12676398057 13.40654654341829
0.0023 6365.66507976166 1.000329119593162 1.558746339827126 287.076981549208 13.36328448224866
0.0024 6365.672782588704 1.000328744826266 1.558677212439188 287.0269131734257 13.31989773646118
0.0025 6365.680529435835 1.000328368470643 1.55860804024704 286.976558667075 13.27638796850079
0.0026 6365.688320331814 1.000327990533406 1.558538823063359 286.9259178432097 13.23275684431256
0.0027 6365.696155305521 1.000327611021695 1.558469560702032 286.8749905141152 13.18900603327697
0.0028 6365.704034385958 1.000327229942676 1.558400252977871 286.8237764912727 13.14513720808892
0.0029 6365.711957602245 1.000326847303539 1.558330899707016 286.7722755854069 13.10115204470752
0.003 6365.71992498362 1.000326463111499 1.558261500706664 286.7204876064678 13.05705222224969
0.0031 6365.727936559442 1.000326077373792 1.55819205579518 286.6684123636254 13.01283942289373
0.0032 6365.735992359186 1.000325690097684 1.558122564791949 286.6160496652927 12.96851533180778
0.0033 6365.744092412441 1.000325301290461 1.55805302751764 286.5633993191321 12.92408163706267
0.0034 6365.752236748916 1.000324910959433 1.557983443794015 286.5104611320434 12.8795400295296
0.0035 6365.760425398433 1.000324519111936 1.55791381344395 286.4572349101871 12.8348922028074
0.0036 6365.768658390926 1.000324125755326 1.557844136291527 286.4037204589794 12.79013985312462
0.0037 6365.776935756448 1.000323730896985 1.557774412161879 286.349917583091 12.74528467924629
0.0038 6365.785257525161 1.000323334544314 1.557704640881414 286.2958260864542 12.70032838238548
0.0039 6365.793623727341 1.000322936704741 1.5576348222776 286.2414457722856 12.65527266612911
0.004 6365.802034393375 1.000322537385715 1.557564956179099 286.186776443063 12.61011923632433
0.0041 6365.81048955376 1.000322136594703 1.557495042415729 286.1318179005606 12.56486980101347
0.004200000000000001 6365.818989239104 1.000321734339201 1.557425080818483 286.0765699458256 12.51952607031996
0.0043 6365.827533480125 1.000321330626719 1.55735507121952 286.0210323791897 12.47408975636335
0.0044 6365.836122307647 1.000320925464795 1.557285013452086 285.9652050002932 12.42856257318351
0.004500000000000001 6365.844755752606 1.000320518860984 1.557214907350709 285.9090876080608 12.38294623662602
0.0046 6365.853433846041 1.000320110822863 1.557144752751036 285.8526800007315 12.33724246427068
0.0047 6365.8621566191 1.00031970135803 1.557074549489873 285.7959819758529 12.29145297533082
0.0048 6365.870924103035 1.000319290474103 1.557004297405262 285.7389933302746 12.24557949055259
0.0049 6365.879736329203 1.00031887817872 1.55693399633633 285.6817138601785 12.19962373214254
0.005 6365.888593329067 1.000318464479538 1.556863646123499 285.6241433610666 12.15358742366148
0.0051 6365.897495134191 1.000318049384237 1.556793246608244 285.5662816277608 12.10747228992794
0.005200000000000001 6365.906441776243 1.000317632900512 1.556722797633338 285.5081284544211 12.06128005693541
0.0053 6365.915433286993 1.00031721503608 1.556652299042714 285.4496836345455 12.01501245175518
0.0054 6365.924469698311 1.000316795798675 1.556581750681473 285.3909469609815 11.96867120244843
0.005500000000000001 6365.933551042168 1.000316375196051 1.556511152395911 285.3319182259087 11.92225803795466
0.0056 6365.942677350636 1.00031595323598 1.556440504033554 285.2725972208681 11.87577468801745
0.0057 6365.951848655883 1.000315529926251 1.556369805443066 285.2129837367623 11.82922288308641
0.0058 6365.961064990178 1.000315105274673 1.556299056474416 285.1530775638438 11.78260435421
0.0059 6365.970326385886 1.00031467928907 1.556228256978641 285.092878491744 11.73592083296035
0.006 6365.979632875467 1.000314251977285 1.556157406808064 285.0323863094621 11.68917405132565
0.0061 6365.988984491481 1.000313823347177 1.556086505816221 284.9716008053764 11.64236574162078
0.006200000000000001 6365.99838126658 1.000313393406622 1.556015553857859 284.9105217672326 11.59549763637956
0.0063 6366.007823233509 1.000312962163513 1.555944550788898 284.8491489821912 11.5485714682923
0.0064 6366.017310425111 1.000312529625759 1.555873496466483 284.7874822367802 11.50158897007043
0.006500000000000001 6366.026842874317 1.000312095801285 1.55580239074904 284.7255213169364 11.45455187437918
0.0066 6366.036420614155 1.00031166069803 1.555731233496096 284.6632660079935 11.40746191372927
0.0067 6366.046043677738 1.000311224323951 1.555660024568524 284.6007160947 11.36032082039098
0.0068 6366.055712098276 1.000310786687019 1.555588763828324 284.5378713612075 11.31313032628577
0.006900000000000001 6366.065425909064 1.000310347795219 1.555517451138826 284.4747315910821 11.26589216289568
0.007 6366.075185143488 1.000309907656551 1.555446086364471 284.4112965673283 11.21860806118131
0.0071 6366.084989835021 1.000309466279031 1.55537466937099 284.3475660723656 11.17127975146431
0.007200000000000001 6366.094840017225 1.000309023670685 1.555303200025374 284.2835398880396 11.12390896333648
0.0073 6366.104735723746 1.000308579839558 1.555231678195787 284.2192177956525 11.07649742558167
0.0074 6366.114676988318 1.000308134793703 1.555160103751684 284.1545995759328 11.02904686605384
0.007500000000000001 6366.12466384476 1.000307688541191 1.555088476563721 284.0896850090593 10.98155901159455
0.0076 6366.134696326975 1.000307241090102 1.555016796503833 284.0244738746609 10.93403558793273
0.0077 6366.144774468949 1.000306792448531 1.554945063445162 283.9589659518286 10.88647831959318
0.007800000000000001 6366.154898304751 1.000306342624585 1.554873277262095 283.8931610191215 10.83888892980048
0.007900000000000001 6366.16506786853 1.000305891626381 1.554801437830303 283.8270588545546 10.79126914037023
0.008 6366.175283194519 1.00030543946205 1.554729545026677 283.7606592356286 10.74362067163001
0.0081 6366.185544317029 1.000304986139735 1.554657598729354 283.6939619393123 10.69594524230631
0.008200000000000001 6366.195851270453 1.000304531667586 1.554585598817735 283.6269667420542 10.64824456943265
0.0083 6366.206204089262 1.000304076053769 1.554513545172544 283.5596734198001 10.60052036826188
0.008400000000000001 6366.216602808002 1.000303619306457 1.554441437675598 283.4920817479878 10.55277435216151
0.008500000000000001 6366.227047461299 1.000303161433835 1.55436927621011 283.4241915015581 10.50500823252166
0.0086 6366.237538083855 1.000302702444096 1.55429706066053 283.3560024549437 10.45722371864639
0.008700000000000001 6366.248074710446 1.000302242345447 1.554224790912529 283.2875143820983 10.40942251767413
0.008800000000000001 6366.258657375926 1.000301781146098 1.554152466853092 283.218727056479 10.36160633446488
0.0089 6366.26928611522 1.000301318854274 1.554080088370404 283.1496402510701 10.31377687151643
0.009000000000000001 6366.279960963327 1.000300855478205 1.55400765535398 283.0802537383769 10.26593582885995
0.0091 6366.290681955317 1.000300391026132 1.553935167694578 283.0105672904377 10.21808490396789
0.0092 6366.301449126335 1.000299925506301 1.553862625284233 282.9405806788239 10.17022579165389
0.009300000000000001 6366.312262511593 1.00029945892697 1.553790028016233 282.8702936746457 10.12236018397665
0.0094 6366.323122146376 1.000298991296401 1.553717375785174 282.7997060485581 10.07448977014397
0.0095 6366.334028066036 1.000298522622866 1.553644668486867 282.7288175707666 10.02661623641684
0.009600000000000001 6366.344980305994 1.00029805291464 1.553571906018477 282.6576280110397 9.978741266017474
0.0097 6366.355978901739 1.000297582180011 1.553499088278385 282.5861371386962 9.930866539021569
0.0098 6366.367023888826 1.000297110427267 1.553426215166259 282.5143447226295 9.882993732274532
0.009900000000000001 6366.378115302876 1.000296637664706 1.553353286583095 282.4422505313072 9.835124519291815
0.01 6366.389253179575 1.000296163900629 1.553280302431134 282.3698543327654 9.787260570155533
0.0101 6366.400437554674 1.000295689143347 1.553207262613861 282.2971558946205 9.739403551423035
0.0102 6366.411668463988 1.00029521340117 1.553134167036136 282.2241549840809 9.691555126035491
0.0103 6366.422945943391 1.000294736682417 1.553061015604016 282.150851367959 9.643716953226468
0.0104 6366.434270028823 1.000294258995411 1.552987808224905 282.0772448126476 9.595890688407556
0.0105 6366.445640756285 1.000293780348479 1.552914544807449 282.0033350841489 9.548077983088948
0.0106 6366.457058161835 1.000293300749951 1.55284122526162 281.9291219480755 9.500280484780788
0.0107 6366.468522281592 1.00029282020816 1.552767849498672 281.8546051696493 9.452499836894731
0.0108 6366.480033151736 1.000292338731446 1.552694417431107 281.7797845137142 9.404737678653316
0.0109 6366.4915908085 1.000291856328147 1.552620928972797 281.7046597447473 9.356995644999394
0.011 6366.503195288178 1.000291373006608 1.55254738403882 281.6292306268418 9.309275366486961
0.0111 6366.514846627119 1.000290888775173 1.552473782545604 281.5534969237241 9.261578469194877
0.0112 6366.526544861727 1.000290403642191 1.552400124410851 281.4774583987777 9.213906574644248
0.0113 6366.538290028459 1.000289917616009 1.552326409553596 281.4011148150197 9.16626129968628
0.0114 6366.550082163828 1.000289430704981 1.552252637894063 281.3244659351184 9.118644256416466
0.0115 6366.561921304399 1.000288942917455 1.552178809353909 281.247511521405 9.071057052085163
0.0116 6366.57380748679 1.000288454261785 1.552104923855995 281.1702513358681 9.02350128899737
0.0117 6366.585740747668 1.000287964746325 1.552030981324502 281.092685140159 8.97597856442019
0.0118 6366.597721123753 1.000287474379427 1.551956981684889 281.0148126956041 8.928490470494122
0.0119 6366.609748651813 1.000286983169444 1.551882924863998 280.9366337632163 8.881038594144487
0.012 6366.621823368665 1.000286491124728 1.551808810789828 280.8581481036775 8.83362451697521
0.0121 6366.633945311175 1.000285998253632 1.551734639391813 280.7793554773624 8.786249815188087
0.0122 6366.646114516254 1.000285504564504 1.551660410600614 280.7002556443498 8.738916059494967
0.0123 6366.658331020862 1.000285010065696 1.551586124348203 280.6208483643994 8.691624815009035
0.0124 6366.670594862002 1.000284514765553 1.551511780567833 280.5411333969872 8.644377641171859
0.0125 6366.682906076724 1.000284018672422 1.551437379194125 280.4611105012935 8.597176091652383
0.0126 6366.69526470212 1.000283521794644 1.551362920162895 280.3807794362209 8.550021714263861
0.0127 6366.707670775325 1.00028302414056 1.551288403411349 280.300139960388 8.502916050867119
0.0128 6366.720124333517 1.000282525718507 1.551213828877998 280.2191918321417 8.455860637284619
0.0129 6366.732625413915 1.000282026536819 1.551139196502539 280.137934809551 8.408857003204545
0.013 6366.74517405378 1.000281526603826 1.551064506226114 280.0563686504305 8.361906672102382
0.0131 6366.757770290411 1.000281025927853 1.550989757991041 279.974493112329 8.315011161142303
0.0132 6366.770414161147 1.000280524517223 1.550914951741023 279.892307952547 8.26817198109601
0.0133 6366.783105703363 1.000280022380252 1.550840087421045 279.8098129281424 8.221390636255054
0.0134 6366.795844954474 1.000279519525253 1.550765164977366 279.7270077959191 8.174668624333558
0.0135 6366.808631951931 1.000279015960533 1.55069018435756 279.6438923124505 8.128007436391508
0.0136 6366.821466733219 1.000278511694392 1.55061514551051 279.5604662340792 8.081408556744927
0.0137 6366.834349335858 1.000278006735126 1.550540048386352 279.4767293169233 8.034873462879869
0.0138 6366.847279797405 1.000277501091025 1.550464892936594 279.3926813168704 7.988403625360283
0.0139 6366.860258155446 1.00027699477037 1.55038967911397 279.308321989601 7.942000507752743
0.014 6366.873284447602 1.000276487781439 1.550314406872555 279.223651090589 7.895665566538377
0.0141 6366.886358711524 1.000275980132498 1.55023907616772 279.1386683750951 7.849400251022143
0.0142 6366.899480984895 1.00027547183181 1.550163686956086 279.0533735981793 7.803206003252328
0.0143 6366.912651305428 1.000274962887627 1.550088239195625 278.9677665147182 7.757084257943601
0.0144 6366.925869710864 1.000274453308194 1.550012732845597 278.8818468793814 7.711036442378182
0.0145 6366.939136238973 1.000273943101749 1.549937167866515 278.7956144466733 7.6650639763426
0.0146 6366.952450927552 1.000273432276519 1.549861544220202 278.7090689709088 7.619168272029913
0.0147 6366.965813814425 1.000272920840722 1.549785861869784 278.6222102062374 7.573350733967828
0.0148 6366.979224937441 1.000272408802568 1.549710120779683 278.5350379066311 7.527612758928454
0.0149 6366.992684334476 1.000271896170257 1.549634320915607 278.4475518259086 7.481955735857318
0.015 6367.006192043426 1.000271382951978 1.549558462244522 278.3597517177285 7.43638104578732
0.0151 6367.019748102217 1.000270869155911 1.549482544734715 278.2716373355901 7.390890061756454
0.0152 6367.033352548791 1.000270354790223 1.549406568355759 278.1832084328565 7.345484148738271
0.0153 6367.047005421116 1.000269839863073 1.549330533078476 278.0944647627492 7.300164663557553
0.0154 6367.060706757177 1.000269324382606 1.549254438875035 278.0054060783476 7.254932954809714
0.0155 6367.074456594984 1.000268808356958 1.549178285718831 277.916032132607 7.209790362789822
0.0156 6367.088254972562 1.00026829179425 1.549102073584548 277.8263426783468 7.164738219407182
0.0157 6367.102101927957 1.000267774702594 1.549025802448182 277.7363374682799 7.119777848121404
0.0158 6367.115997499232 1.000267257090087 1.548949472286984 277.6460162549891 7.074910563852331
0.0159 6367.129941724468 1.000266738964815 1.548873083079455 277.555378790957 7.030137672917252
0.016 6367.143934641759 1.000266220334848 1.548796634805426 277.4644248285653 6.985460472953852
0.0161 6367.157976289218 1.000265701208246 1.548720127445974 277.3731541200835 6.940880252838147
0.0162 6367.172066704969 1.000265181593052 1.548643560983448 277.2815664177045 6.896398292626198
0.0163 6367.186205927152 1.000264661497298 1.548566935401451 277.1896614735145 6.852015863464706
0.0164 6367.200393993918 1.000264140928999 1.548490250684878 277.0974390395348 6.807734227536758
0.0165 6367.214630943432 1.000263619896157 1.548413506819877 277.0048988676921 6.763554637973908
0.0166 6367.22891681387 1.000263098406757 1.54833670379388 276.912040709842 6.719478338794655
0.0167 6367.243251643417 1.000262576468772 1.548259841595542 276.8188643177872 6.675506564840539
0.0168 6367.25763547027 1.000262054090154 1.548182920214817 276.7253694432474 6.631640541690579
0.0169 6367.272068332631 1.000261531278846 1.548105939642877 276.6315558379009 6.587881485609986
0.017 6367.286550268714 1.000261008042768 1.54802889987221 276.5374232533612 6.544230603468915
0.0171 6367.301081316738 1.000260484389828 1.547951800896489 276.4429714412062 6.500689092686856
0.0172 6367.315661514929 1.000259960327916 1.547874642710678 276.3482001529604 6.457258141155757
0.0173 6367.33029090152 1.000259435864904 1.547797425310974 276.2531091401191 6.41393892718302
0.0174 6367.344969514746 1.000258911008646 1.547720148694847 276.1576981541479 6.370732619424293
0.0175 6367.35969739285 1.000258385766981 1.547642812860975 276.0619669464767 6.327640376814412
0.0176 6367.374474574074 1.000257860147727 1.547565417809284 275.965915268518 6.284663348509842
0.0177 6367.389301096666 1.000257334158686 1.54748796354096 275.8695428716723 6.241802673826434
0.0178 6367.404176998873 1.00025680780764 1.547410450058397 275.7728495073223 6.199059482172734
0.0179 6367.419102318947 1.000256281102351 1.547332877365246 275.6758349268451 6.156434892992007
0.018 6367.434077095136 1.000255754050565 1.547255245466383 275.5784988816175 6.113930015702381
0.0181 6367.449101365689 1.000255226660006 1.547177554367901 275.4808411230223 6.071545949637775
0.0182 6367.464175168853 1.000254698938378 1.547099804077118 275.3828614024541 6.029283783989605
0.0183 6367.479298542876 1.000254170893367 1.547021994602596 275.2845594713075 5.987144597741724
0.0184 6367.494471525997 1.000253642532637 1.546944125954083 275.1859350810186 5.945129459629045
0.0185 6367.509694156457 1.000253113863831 1.546866198142574 275.0869879830292 5.903239428063965
0.0186 6367.524966472491 1.000252584894573 1.546788211180237 274.9877179288109 5.86147555108909
0.0187 6367.540288512327 1.000252055632463 1.546710165080512 274.8881246698764 5.819838866325552
0.0188 6367.555660314189 1.000251526085083 1.546632059857975 274.7882079577743 5.77833040091474
0.0189 6367.571081916292 1.00025099625999 1.546553895528445 274.6879675440999 5.736951171468357
0.019 6367.586553356849 1.00025046616472 1.546475672108931 274.5874031804846 5.695702184009569
0.0191 6367.602074674057 1.000249935806787 1.546397389617642 274.4865146186302 5.654584433934498
0.0192 6367.617645906109 1.000249405193684 1.546319048073975 274.385301610292 5.613598905952647
0.0193 6367.633267091186 1.000248874332877 1.546240647498535 274.2837639072903 5.572746574040419
0.0194 6367.648938267462 1.000248343231812 1.546162187913066 274.1819012614986 5.53202840138601
0.0195 6367.664659473094 1.000247811897912 1.546083669340547 274.0797134248909 5.491445340358847
0.0196 6367.680430746232 1.000247280338574 1.54600509180511 273.9772001494943 5.450998332442102
0.0197 6367.696252125011 1.000246748561172 1.545926455332043 273.8743611874305 5.410688308201555
0.0198 6367.712123647552 1.000246216573057 1.545847759947836 273.7711962909101 5.370516187236479
0.0199 6367.728045351965 1.000245684381554 1.545769005680149 273.6677052122262 5.330482878131599
0.02 6367.74401727634 1.000245151993964 1.54569019255776 273.5638877037903 5.290589278426025
0.0201 6367.760039458755 1.000244619417561 1.545611320610676 273.4597435180907 5.250836274553401
0.0202 6367.776111937272 1.000244086659599 1.545532389869963 273.3552724077339 5.211224741814991
0.0203 6367.792234749933 1.0002435537273 1.545453400367937 273.2504741254387 5.171755544335428
