#theta R n z T P_w
0 6365.5 1.000307379058357 1.560324351282931 288.15 7.673277762473433
0.0001 6365.506698014227 1.000307117439091 1.560249118261335 288.1064629075221 7.651792101802306
0.0002 6365.513443930524 1.000306854222037 1.560173860186372 288.0626144515949 7.630206210534872
0.0003 6365.520237765068 1.000306589412048 1.560098576899036 288.0184545270607 7.608521065120645
0.0004 6365.52707953414 1.000306323014001 1.560023268241246 287.9739830280881 7.586737645641921
0.0005 6365.533969254125 1.000306055032797 1.559947934055586 287.9291998481893 7.564856935760561
0.0006000000000000001 6365.540906941507 1.000305785473364 1.559872574185508 287.8841048802027 7.542879922647231
0.0007 6365.547892612874 1.000305514340653 1.559797188475276 287.8386980163162 7.520807596930533
0.0008 6365.554926284914 1.000305241639641 1.559721776769909 287.7929791480559 7.498640952628644
0.0009000000000000001 6365.562007974417 1.000304967375328 1.559646338915205 287.7469481662914 7.476380987089335
0.001 6365.569137698268 1.000304691552739 1.55957087475781 287.70060496126 7.454028700938297
0.0011 6365.576315473458 1.000304414176924 1.559495384145111 287.6539494225248 7.43158509799582
0.0012 6365.583541317072 1.000304135252955 1.559419866925261 287.6069814390343 7.409051185241729
0.0013 6365.590815246296 1.00030385478593 1.55934432294732 287.5597008990748 7.386427972728832
0.0014 6365.598137278413 1.000303572780968 1.559268752061002 287.5121076903177 7.363716473541579
0.0015 6365.605507430802 1.000303289243215 1.559193154116875 287.4642016997844 7.340917703714841
0.0016 6365.612925720944 1.000303004177835 1.559117528966299 287.4159828138635 7.318032682177995
0.0017 6365.620392166411 1.000302717590021 1.559041876461383 287.3674509183287 7.29506243069865
0.0018 6365.627906784874 1.000302429484984 1.558966196455072 287.3186058983214 7.272007973809376
0.0019 6365.635469594097 1.000302139867961 1.558890488801027 287.269447638368 7.248870338751018
0.002 6365.643080611942 1.000301848744209 1.558814753353801 287.2199760223801 7.22565055540741
0.0021 6365.650739856363 1.00030155611901 1.558738989968624 287.1701909336429 7.202349656234383
0.0022 6365.658447345409 1.000301261997666 1.558663198501535 287.1200922548441 7.178968676207985
0.0023 6365.666203097222 1.000300966385502 1.558587378809447 287.0696798680568 7.155508652750309
0.0024 6365.674007130038 1.000300669287864 1.558511530749985 287.0189536547513 7.131970625669032
0.0025 6365.681859462185 1.000300370710121 1.558435654181552 286.9679134957945 7.108355637091212
0.0026 6365.689760112083 1.000300070657663 1.558359748963355 286.9165592714625 7.084664731402387
0.0027 6365.697709098242 1.0002997691359 1.558283814955391 286.8648908614281 7.060898955174584
0.0028 6365.705706439265 1.000299466150264 1.558207852018484 286.812908144779 7.037059357107801
0.0029 6365.713752153844 1.000299161706208 1.55813186001417 286.7606110000119 7.013146987960432
0.003 6365.721846260764 1.000298855809207 1.55805583880483 286.7079993050319 6.989162900482266
0.0031 6365.729988778895 1.000298548464753 1.557979788253599 286.6550729371828 6.965108149360803
0.0032 6365.738179727198 1.000298239678362 1.557903708224475 286.6018317732113 6.940983791137774
0.0033 6365.746419124725 1.000297929455568 1.557827598582116 286.5482756892906 6.916790884152484
0.0034 6365.754706990611 1.000297617801925 1.557751459192135 286.4944045610263 6.892530488476889
0.0035 6365.763043344084 1.000297304723009 1.557675289920762 286.4402182634566 6.86820366584785
0.0036 6365.771428204454 1.000296990224412 1.557599090635177 286.3857166710521 6.843811479599295
0.0037 6365.77986159112 1.000296674311749 1.557522861203231 286.3308996577219 6.819354994596901
0.0038 6365.788343523567 1.000296356990651 1.557446601493683 286.2757670968134 6.794835277170015
0.0039 6365.796874021366 1.00029603826677 1.557370311375984 286.2203188611182 6.770253395046097
0.004 6365.805453104173 1.000295718145776 1.557293990720417 286.1645548228784 6.745610417285022
0.0041 6365.814080791725 1.000295396633358 1.557217639398121 286.1084748537859 6.720907414210666
0.004200000000000001 6365.822757103847 1.000295073735223 1.557141257280935 286.052078824995 6.69614545734758
0.0043 6365.831482060446 1.000294749457096 1.557064844241577 285.9953666070982 6.671325619342004
0.0044 6365.840255681513 1.000294423804722 1.556988400153503 285.9383380701678 6.646448973911331
0.004500000000000001 6365.849077987119 1.00029409678386 1.556911924891003 285.8809930837264 6.621516595762378
0.0046 6365.85794899742 1.00029376840029 1.556835418329183 285.8233315167703 6.59652956053284
0.0047 6365.866868732651 1.000293438659808 1.556758880343944 285.7653532377698 6.571488944722327
0.0048 6365.87583721313 1.000293107568228 1.556682310811929 285.7070581146571 6.54639582561825
0.0049 6365.884854459253 1.000292775131379 1.556605709610669 285.6484460148562 6.521251281239495
0.005 6365.893920491499 1.00029244135511 1.556529076618469 285.5895168052588 6.49605639025711
0.0051 6365.903035330423 1.000292106245283 1.556452411714401 285.5302703522483 6.47081223193526
0.005200000000000001 6365.912198996662 1.000291769807778 1.556375714778443 285.4707065216938 6.445519886059423
0.0053 6365.921411510931 1.000291432048493 1.55629898569127 285.4108251789502 6.42018043286714
0.0054 6365.930672894019 1.000291092973339 1.556222224334464 285.3506261888755 6.394794952986174
0.005500000000000001 6365.939983166798 1.000290752588245 1.556145430590328 285.2901094158136 6.369364527357651
0.0056 6365.949342350213 1.000290410899154 1.556068604342027 285.2292747236178 6.343890237176638
0.0057 6365.958750465286 1.000290067912024 1.555991745473564 285.1681219756387 6.318373163817747
0.0058 6365.968207533117 1.000289723632831 1.555914853869687 285.1066510347363 6.29281438877064
0.0059 6365.97771357488 1.000289378067562 1.555837929416012 285.04486176328 6.267214993570574
0.006 6365.987268611822 1.000289031222223 1.55576097199895 284.9827540231544 6.241576059731382
0.0061 6365.996872665267 1.00028868310283 1.555683981505738 284.9203276757652 6.215898668678426
0.006200000000000001 6366.006525756611 1.000288333715417 1.555606957824426 284.8575825820275 6.190183901674267
0.0063 6366.016227907326 1.000287983066031 1.555529900843846 284.7945186023834 6.164432839756516
0.0064 6366.025979138953 1.000287631160731 1.555452810453721 284.731135596808 6.138646563670769
0.006500000000000001 6366.035779473106 1.000287278005592 1.555375686544584 284.6674334248095 6.112826153801119
0.0066 6366.045628931475 1.000286923606702 1.555298529007704 284.603411945411 6.086972690093596
0.0067 6366.055527535815 1.000286567970162 1.555221337735265 284.5390710172045 6.061087252008278
0.0068 6366.065475307955 1.000286211102084 1.555144112620271 284.4744104982909 6.03517091842606
0.006900000000000001 6366.075472269796 1.000285853008597 1.555066853556479 284.409430246328 6.009224767598414
0.007 6366.085518443303 1.00028549369584 1.554989560438564 284.3441301185302 5.983249877078043
0.0071 6366.095613850516 1.000285133169963 1.554912233161938 284.2785099716447 5.957247323640213
0.007200000000000001 6366.105758513541 1.000284771437131 1.55483487162289 284.2125696619813 5.931218183225377
0.0073 6366.115952454552 1.000284408503521 1.55475747571853 284.1463090454125 5.905163530869998
0.0074 6366.126195695791 1.000284044375318 1.554680045346831 284.0797279773614 5.879084440632837
0.007500000000000001 6366.136488259565 1.000283679058723 1.55460258040651 284.0128263128253 5.852981985535269
0.0076 6366.146830168251 1.000283312559946 1.554525080797211 283.9456039063701 5.826857237490006
0.0077 6366.157221444289 1.000282944885207 1.554447546419361 283.8780606121185 5.800711267227705
0.007800000000000001 6366.167662110188 1.00028257604074 1.554369977174235 283.810196283779 5.774545144239716
0.007900000000000001 6366.178152188518 1.000282206032787 1.554292372963907 283.7420107746347 5.748359936704823
0.008 6366.188691701915 1.000281834867601 1.554214733691337 283.6735039375548 5.722156711425225
0.0081 6366.19928067308 1.000281462551447 1.554137059260252 283.6046756249829 5.695936533753579
0.008200000000000001 6366.209919124774 1.000281089090597 1.55405934957535 283.5355256889665 5.669700467535919
0.0083 6366.220607079826 1.000280714491335 1.553981604541979 283.4660539811333 5.643449575034408
0.008400000000000001 6366.231344561123 1.000280338759953 1.553903824066483 283.3962603527033 5.617184916863751
0.008500000000000001 6366.242131591615 1.000279961902754 1.553826008055937 283.3261446545001 5.590907551927674
0.0086 6366.252968194314 1.000279583926049 1.553748156418346 283.2557067369574 5.564618537353223
0.008700000000000001 6366.263854392292 1.000279204836157 1.553670269062499 283.1849464501009 5.538318928416427
0.008800000000000001 6366.274790208681 1.000278824639408 1.553592345898016 283.113863643572 5.512009778483552
0.0089 6366.285775666674 1.000278443342139 1.553514386835402 283.0424581666219 5.485692138941456
0.009000000000000001 6366.29681078952 1.000278060950694 1.553436391785984 282.9707298681177 5.459367059132499
0.0091 6366.30789560053 1.000277677471428 1.5533583606619 282.8986785965539 5.433035586291744
0.0092 6366.319030123072 1.000277292910701 1.553280293376176 282.8263042000348 5.406698765473502
0.009300000000000001 6366.33021438057 1.000276907274882 1.553202189842681 282.7536065262924 5.380357639491064
0.0094 6366.341448396508 1.000276520570346 1.553124049976111 282.6805854226981 5.354013248854347
0.0095 6366.352732194424 1.000276132803478 1.553045873691976 282.6072407362448 5.327666631697032
0.009600000000000001 6366.364065797911 1.000275743980666 1.552967660906691 282.5335723135767 5.301318823720965
0.0097 6366.375449230621 1.000275354108307 1.552889411537518 282.4595800009655 5.274970858121599
0.0098 6366.386882516256 1.000274963192804 1.552811125502483 282.3852636443343 5.248623765530607
0.009900000000000001 6366.398365678578 1.000274571240566 1.552732802720572 282.3106230892453 5.222278573946014
0.01 6366.409898741398 1.000274178258008 1.552654443111507 282.2356581809121 5.195936308670969
0.0101 6366.421481728584 1.000273784251551 1.55257604659594 282.1603687642054 5.169597992250582
0.0102 6366.433114664052 1.000273389227621 1.552497613095344 282.0847546836588 5.14326464440895
0.0103 6366.444797571777 1.000272993192649 1.552419142532039 282.0088157834515 5.116937281978213
0.0104 6366.456530475778 1.000272596153073 1.552340634829182 281.9325519074431 5.090616918846342
0.0105 6366.468313400131 1.000272198115334 1.552262089910785 281.8559628991505 5.064304565884604
0.0106 6366.480146368958 1.000271799085878 1.552183507701732 281.7790486017715 5.038001230891656
0.0107 6366.492029406435 1.000271399071155 1.552104888127746 281.7018088581725 5.011707918525635
0.0108 6366.503962536786 1.00027099807762 1.552026231115365 281.6242435108892 4.985425630240659
0.0109 6366.515945784284 1.000270596111732 1.551947536592034 281.5463524021555 4.959155364233543
0.011 6366.527979173249 1.000270193179953 1.551868804485969 281.4681353738805 4.932898115372716
0.0111 6366.540062728051 1.000269789288748 1.551790034726348 281.3895922676655 4.906654875141456
0.0112 6366.552196473107 1.000269384444588 1.55171122724309 281.3107229248047 4.880426631575381
0.0113 6366.564380432879 1.000268978653943 1.551632381967041 281.2315271862848 4.854214369200244
0.0114 6366.576614631878 1.000268571923289 1.551553498829858 281.1520048927908 4.828019068971988
0.0115 6366.588899094658 1.000268164259103 1.551474577764058 281.0721558847243 4.801841708220938
0.0116 6366.601233845819 1.000267755667865 1.551395618702997 280.9919800021734 4.775683260580757
0.0117 6366.613618910009 1.000267346156057 1.551316621580922 280.9114770849422 4.749544695937161
0.0118 6366.626054311914 1.000266935730163 1.551237586332852 280.8306469725575 4.723426980369068
0.0119 6366.638540076269 1.000266524396669 1.551158512894758 280.7494895042499 4.697331076082467
0.012 6366.651076227849 1.000266112162062 1.551079401203398 280.6680045189786 4.671257941357987
0.0121 6366.663662791473 1.000265699032829 1.551000251196343 280.5861918554245 4.645208530489232
0.0122 6366.676299792001 1.000265285015461 1.550921062812115 280.5040513519911 4.61918379372339
0.0123 6366.688987254335 1.000264870116447 1.550841835990028 280.4215828468213 4.593184677207786
0.0124 6366.701725203417 1.000264454342279 1.550762570670214 280.3387861777863 4.567212122927394
0.0125 6366.714513664233 1.000264037699447 1.550683266793702 280.2556611824856 4.541267068646521
0.0126 6366.727352661804 1.000263620194442 1.550603924302359 280.1722076982759 4.515350447860022
0.0127 6366.740242221192 1.000263201833756 1.550524543138903 280.088425562254 4.489463189730056
0.0128 6366.753182367498 1.000262782623879 1.550445123246905 280.0043146112624 4.463606219030657
0.0129 6366.766173125862 1.000262362571301 1.550365664570734 279.9198746818955 4.437780456092634
0.013 6366.779214521462 1.000261941682513 1.550286167055683 279.8351056104992 4.411986816747044
0.0131 6366.792306579509 1.000261519964002 1.550206630647836 279.750007233189 4.386226212274418
0.0132 6366.805449325258 1.000261097422256 1.55012705529414 279.664579385826 4.360499549341816
0.0133 6366.818642783993 1.000260674063761 1.5500474409424 279.5788219040468 4.33480772995641
0.0134 6366.831886981037 1.000260249895 1.549967787541247 279.4927346232574 4.309151651408684
0.0135 6366.845181941748 1.000259824922457 1.549888095040157 279.4063173786393 4.283532206219616
0.0136 6366.858527691518 1.000259399152612 1.549808363389461 279.3195700051314 4.25795028208128
0.0137 6366.871924255773 1.000258972591943 1.549728592540329 279.2324923374775 4.23240676181709
0.0138 6366.885371659971 1.000258545246924 1.549648782444773 279.1450842101912 4.206902523317956
0.0139 6366.898869929605 1.00025811712403 1.54956893305564 279.0573454575668 4.181438439492923
0.014 6366.9124190902 1.000257688229729 1.549489044326647 278.9692759136982 4.15601537822185
0.0141 6366.926019167313 1.000257258570489 1.549409116212306 278.880875412466 4.130634202299931
0.0142 6366.939670186531 1.000256828152773 1.549329148667988 278.7921437875501 4.105295769389525
0.0143 6366.953372173472 1.00025639698304 1.549249141649919 278.7030808724293 4.080000931969002
0.0144 6366.967125153787 1.000255965067746 1.549169095115151 278.6136865003872 4.054750537283731
0.0145 6366.980929153151 1.000255532413344 1.549089009021548 278.5239605045184 4.029545427297499
0.0146 6366.994784197274 1.00025509902628 1.549008883327863 278.4339027177165 4.004386438639425
0.0147 6367.008690311894 1.000254664912998 1.548928717993634 278.3435129726917 3.979274402559664
0.0148 6367.022647522772 1.000254230079936 1.548848512979248 278.2527911019828 3.954210144883812
0.0149 6367.036655855702 1.000253794533528 1.548768268245944 278.1617369379395 3.929194485959622
0.015 6367.050715336502 1.000253358280203 1.54868798375575 278.0703503127341 3.904228240612428
0.0151 6367.064825991019 1.000252921326383 1.548607659471598 277.9786310583735 3.879312218100987
0.0152 6367.078987845125 1.000252483678487 1.548527295357149 277.8865790066869 3.85444722206735
0.0153 6367.093200924717 1.000252045342927 1.548446891376962 277.7941939893384 3.829634050493712
0.0154 6367.107465255716 1.000251606326108 1.54836644749644 277.701475837844 3.804873495661239
0.0155 6367.12178086407 1.00025116663443 1.54828596368174 277.6084243835425 3.780166344096759
0.0156 6367.136147775749 1.000250726274287 1.548205439899884 277.5150394576307 3.755513376537368
0.0157 6367.150566016748 1.000250285252067 1.548124876118714 277.42132089114 3.730915367879788
0.0158 6367.165035613083 1.000249843574149 1.548044272306911 277.3272685149599 3.706373087142795
0.0159 6367.179556590794 1.000249401246907 1.54796362843394 277.2328821598379 3.681887297423855
0.016 6367.194128975942 1.000248958276706 1.54788294447013 277.1381616563739 3.65745875585481
0.0161 6367.208752794611 1.000248514669907 1.54780222038655 277.0431068350316 3.633088213562703
0.0162 6367.223428072902 1.00024807043286 1.547721456155182 276.9477175261389 3.608776415628055
0.0163 6367.238154836939 1.000247625571909 1.547640651748742 276.8519935598937 3.584524101045215
0.0164 6367.252933112867 1.000247180093388 1.547559807140827 276.7559347663636 3.560332002681729
0.0165 6367.267762926848 1.000246734003627 1.547478922305788 276.6595409754863 3.536200847238306
0.0166 6367.282644305064 1.000246287308943 1.547397997218801 276.5628120170871 3.512131355213748
0.0167 6367.297577273715 1.000245840015647 1.547317031855884 276.4657477208556 3.488124240860117
0.0168 6367.312561859017 1.000245392130042 1.547236026193784 276.3683479163864 3.464180212154634
0.0169 6367.327598087209 1.000244943658419 1.547154980210136 276.2706124331443 3.440299970753084
0.017 6367.342685984539 1.000244494607062 1.547073893883335 276.1725411004994 3.416484211961312
0.0171 6367.357825577275 1.000244044982247 1.546992767192577 276.0741337477097 3.392733624694203
0.0172 6367.373016891703 1.000243594790236 1.546911600117878 275.9753902039323 3.369048891442496
0.0173 6367.388259954119 1.000243144037286 1.546830392640038 275.8763102982242 3.345430688237291
0.0174 6367.403554790839 1.000242692729643 1.546749144740621 275.7768938595476 3.321879684616568
0.0175 6367.418901428189 1.000242240873539 1.546667856402048 275.6771407167702 3.29839654359089
0.0176 6367.434299892513 1.000241788475202 1.546586527607463 275.5770506986649 3.274981921609716
0.0177 6367.449750210163 1.000241335540845 1.546505158340862 275.47662363394 3.251636468535204
0.0178 6367.465252407509 1.000240882076671 1.546423748586974 275.375859351191 3.228360827598673
0.0179 6367.480806510929 1.000240428088874 1.546342298331357 275.2747576789606 3.205155635382474
0.018 6367.496412546815 1.000239973583636 1.546260807560311 275.1733184457024 3.18202152178046
0.0181 6367.512070541569 1.000239518567126 1.546179276260959 275.0715414797995 3.158959109971444
0.0182 6367.527780521605 1.000239063045504 1.546097704421164 274.9694266095697 3.135969016390472
0.0183 6367.543542513346 1.000238607024919 1.546016092029594 274.8669736632481 3.113051850695435
0.0184 6367.559356543227 1.000238150511505 1.545934439075668 274.7641824690226 3.090208215746263
0.0185 6367.57522263769 1.000237693511388 1.545852745549582 274.6610528550158 3.067438707572756
0.0186 6367.591140823186 1.000237236030678 1.545771011442313 274.5575846492915 3.0447439153484
0.0187 6367.607111126174 1.000236778075476 1.545689236745598 274.453777679866 3.022124421366066
0.0188 6367.623133573125 1.000236319651869 1.545607421451938 274.3496317746907 2.999580801007907
0.0189 6367.639208190511 1.000235860765931 1.545525565554596 274.2451467616755 2.977113622724923
0.019 6367.655335004815 1.000235401423724 1.545443669047603 274.1403224687009 2.954723448014499
0.0191 6367.671514042525 1.000234941631298 1.545361731925716 274.0351587235881 2.932410831389733
0.0192 6367.687745330135 1.000234481394688 1.54527975418447 273.9296553541229 2.910176320360897
0.0193 6367.704028894143 1.000234020719916 1.545197735820186 273.8238121880676 2.888020455414881
0.0194 6367.720364761057 1.000233559612992 1.545115676829868 273.717629053131 2.865943769986657
0.0195 6367.736752957383 1.000233098079911 1.545033577211291 273.6111057770103 2.843946790446271
0.0196 6367.753193509635 1.000232636126655 1.544951436963004 273.5042421873731 2.822030036074084
0.0197 6367.76968644433 1.000232173759191 1.544869256084254 273.3970381118573 2.800194019040451
0.0198 6367.786231787987 1.000231710983474 1.544787034575057 273.2894933780834 2.778439244388478
0.0199 6367.802829567128 1.000231247805442 1.544704772436148 273.1816078136657 2.756766210017364
0.02 6367.819479808278 1.000230784231021 1.544622469669018 273.0733812461948 2.735175406660465
0.0201 6367.836182537962 1.000230320266121 1.544540126275838 272.9648135032497 2.71366731787004
0.0202 6367.852937782708 1.000229855916638 1.544457742259576 272.8559044123975 2.692242420000276
0.0203 6367.869745569044 1.000229391188453 1.544375317623847 272.7466538012171 2.670901182195615
