#theta R n z T P_w
0 6365.5 1.00034725334718 1.560324351282931 288.15 16.54017651022051
0.0001 6365.506698014227 1.000346892121706 1.560258561721029 288.1064629075221 16.49386297499608
0.0002 6365.513437918601 1.000346529124613 1.560192726911242 288.0626535290929 16.44737480267768
0.0003 6365.52021974212 1.000346164362727 1.560126846627624 288.0185716762174 16.40071370001015
0.0004 6365.527043513927 1.000345797842902 1.560060920645416 287.9742171594725 16.35388137941024
0.0005 6365.533909263309 1.000345429572023 1.559994948741132 287.9295897884889 16.30687955886435
0.0006000000000000001 6365.540817019697 1.000345059557004 1.559928930692231 287.8846893719696 16.25970996186342
0.0007 6365.547766812664 1.000344687804793 1.559862866277517 287.8395157176832 16.21237431731242
0.0008 6365.554758671927 1.000344314322364 1.559796755276834 287.7940686324763 16.16487435945798
0.0009000000000000001 6365.561792627343 1.000343939116725 1.559730597471187 287.7483479222732 16.11721182780327
0.001 6365.56886870891 1.000343562194909 1.559664392642802 287.7023533920818 16.06938846702855
0.0011 6365.575986946769 1.000343183563982 1.559598140574953 287.6560848459998 16.02140602691131
0.0012 6365.583147371198 1.000342803231039 1.559531841052228 287.6095420872142 15.97326626223984
0.0013 6365.590350012612 1.000342421203203 1.55946549386023 287.5627249180196 15.92497093274464
0.0014 6365.597594901568 1.000342037487626 1.559399098785836 287.515633139806 15.87652180299894
0.0015 6365.604882068757 1.000341652091491 1.559332655617025 287.4682665530767 15.82792064234922
0.0016 6365.612211545009 1.000341265022006 1.559266164142949 287.4206249574421 15.77916922482098
0.0017 6365.619583361286 1.000340876286409 1.559199624154029 287.3727081516439 15.7302693290544
0.0018 6365.626997548688 1.000340485891967 1.5591330354417 287.324515933531 15.68122273819114
0.0019 6365.634454138449 1.000340093845975 1.559066397798712 287.2760481000831 15.63203123980917
0.002 6365.641953161935 1.000339700155754 1.558999711018944 287.2273044474231 15.58269662584488
0.0021 6365.649494650646 1.000339304828654 1.558932974897459 287.1782847707985 15.53322069248492
0.0022 6365.657078636215 1.000338907872053 1.558866189230451 287.1289888646 15.48360524009358
0.0023 6365.664705150404 1.000338509293353 1.558799353815472 287.0794165223728 15.43385207313369
0.0024 6365.672374225107 1.000338109099986 1.55873246845105 287.0295675368046 15.38396300006329
0.0025 6365.680085892346 1.00033770729941 1.558665532937062 286.9794416997501 15.33393983326763
0.0026 6365.687840184274 1.000337303899108 1.558598547074521 286.9290388022181 15.28378438895506
0.0027 6365.695637133171 1.000336898906593 1.558531510665622 286.8783586343901 15.23349848708223
0.0028 6365.703476771445 1.000336492329399 1.558464423513837 286.8274009856081 15.18308395124942
0.0029 6365.711359131631 1.000336084175089 1.558397285423759 286.776165644398 15.13254260863067
0.003 6365.71928424639 1.000335674451252 1.558330096201249 286.7246523984644 15.08187628987425
0.0031 6365.727252148507 1.000335263165502 1.558262855653337 286.6728610347076 15.03108682902601
0.0032 6365.73526287089 1.000334850325476 1.558195563588277 286.6207913392121 14.98017606342335
0.0033 6365.743316446577 1.000334435938838 1.558128219815587 286.5684430972468 14.92914583360053
0.0034 6365.751412908723 1.000334020013276 1.558060824145943 286.5158160933 14.8779979832282
0.0035 6365.759552290606 1.000333602556504 1.557993376391261 286.4629101110621 14.82673435900048
0.0036 6365.767734625626 1.000333183576259 1.55792587636467 286.4097249334312 14.77535681054495
0.0037 6365.775959947304 1.000332763080302 1.55785832388062 286.3562603425252 14.7238671903379
0.0038 6365.784228289282 1.000332341076417 1.557790718754637 286.3025161196696 14.67226735359644
0.0039 6365.792539685318 1.000331917572414 1.557723060803589 286.2484920454334 14.6205591582158
0.004 6365.80089416929 1.000331492576123 1.557655349845604 286.1941878996171 14.56874446466062
0.0041 6365.809291775193 1.000331066095402 1.557587585699918 286.1396034612466 14.51682513586188
0.004200000000000001 6365.81773253714 1.000330638138126 1.557519768187125 286.0847385085912 14.46480303713602
0.0043 6365.826216489358 1.000330208712197 1.557451897129072 286.0295928191753 14.41268003609791
0.0044 6365.83474366619 1.000329777825538 1.557383972348755 285.9741661697666 14.36045800255125
0.004500000000000001 6365.843314102093 1.000329345486093 1.557315993670523 285.9184583363939 14.30813880840645
0.0046 6365.851927831638 1.00032891170183 1.557247960919931 285.8624690943528 14.25572432758714
0.0047 6365.860584889509 1.000328476480737 1.557179873923822 285.8061982181943 14.20321643591965
0.0048 6365.869285310499 1.000328039830824 1.557111732510224 285.7496454817536 14.15061701106104
0.0049 6365.878029129517 1.000327601760122 1.557043536508547 285.6928106581394 14.09792793238796
0.005 6365.886816381579 1.000327162276683 1.556975285749383 285.6356935197385 14.04515108090202
0.0051 6365.895647101811 1.00032672138858 1.55690698006462 285.5782938382289 13.99228833914014
0.005200000000000001 6365.904521325448 1.000326279103906 1.556838619287392 285.5206113845906 13.93934159108462
0.0053 6365.913439087833 1.000325835430773 1.556770203252166 285.4626459290884 13.88631272204568
0.0054 6365.922400424416 1.000325390377316 1.556701731794604 285.4043972412954 13.83320361858194
0.005500000000000001 6365.931405370755 1.000324943951686 1.556633204751764 285.3458650900933 13.78001616839868
0.0056 6365.94045396251 1.000324496162056 1.556564621961882 285.2870492436836 13.72675226025682
0.0057 6365.949546235449 1.000324047016617 1.556495983264516 285.2279494695821 13.67341378386529
0.0058 6365.958682225441 1.000323596523579 1.556427288500509 285.1685655346308 13.6200026297895
0.0059 6365.967861968461 1.000323144691169 1.556358537512086 285.1088972050037 13.56652068935396
0.006 6365.977085500584 1.000322691527635 1.556289730142612 285.0489442462066 13.51296985453953
0.0061 6365.986352857986 1.000322237041242 1.55622086623684 284.9887064230892 13.4593520178909
0.006200000000000001 6365.995664076947 1.000321781240272 1.556151945640832 284.928183499845 13.4056690724133
0.0063 6366.005019193844 1.000321324133024 1.556082968201913 284.8673752400172 13.3519229114743
0.0064 6366.014418245152 1.000320865727818 1.556013933768777 284.8062814065105 13.29811542871058
0.006500000000000001 6366.023861267448 1.000320406032985 1.55594484219134 284.7449017615912 13.24424851792396
0.0066 6366.033348297402 1.000319945056878 1.555875693320881 284.6832360668872 13.19032407297731
0.0067 6366.042879371783 1.000319482807863 1.555806487010016 284.6212840834113 13.13634398771103
0.0068 6366.052454527456 1.000319019294324 1.555737223112638 284.5590455715381 13.08231015581783
0.006900000000000001 6366.062073801379 1.00031855452466 1.555667901483971 284.4965202910392 13.02822447076907
0.007 6366.071737230604 1.000318088507286 1.555598521980564 284.4337080010713 12.97408882569952
0.0071 6366.08144485228 1.00031762125063 1.555529084460289 284.3706084601821 12.91990511330757
0.007200000000000001 6366.091196703643 1.000317152763139 1.555459588782345 284.3072214263224 12.86567522576027
0.0073 6366.100992822023 1.000316683053272 1.555390034807287 284.2435466568517 12.81140105459299
0.0074 6366.110833244841 1.000316212129502 1.555320422396951 284.1795839085324 12.75708449059898
0.007500000000000001 6366.120718009607 1.000315740000318 1.555250751414561 284.1153329375537 12.70272742374387
0.0076 6366.13064715392 1.000315266674222 1.555181021724672 284.0507934995193 12.64833174304992
0.0077 6366.140620715467 1.000314792159729 1.555111233193141 283.9859653494653 12.59389933650512
0.007800000000000001 6366.150638732022 1.000314316465368 1.555041385687191 283.9208482418547 12.5394320909523
0.007900000000000001 6366.160701241448 1.000313839599679 1.554971479075413 283.8554419305887 12.48493189199294
0.008 6366.170808281689 1.000313361571219 1.554901513227672 283.7897461690185 12.43040062389087
0.0081 6366.180959890778 1.000312882388552 1.554831488015301 283.7237607099399 12.37584016946103
0.008200000000000001 6366.191156106829 1.000312402060259 1.554761403310863 283.6574853056107 12.32125240997774
0.0083 6366.20139696804 1.000311920594928 1.554691258988343 283.5909197077389 12.26663922505855
0.008400000000000001 6366.211682512691 1.000311438001163 1.554621054923101 283.5240636675061 12.21200249257713
0.008500000000000001 6366.222012779144 1.000310954287575 1.554550790991793 283.4569169355622 12.15734408855179
0.0086 6366.232387805841 1.00031046946279 1.554480467072494 283.3894792620366 12.10266588704847
0.008700000000000001 6366.242807631301 1.000309983535441 1.554410083044592 283.3217503965446 12.04796976007878
0.008800000000000001 6366.253272294126 1.000309496514172 1.554339638788855 283.2537300881812 11.99325757748845
0.0089 6366.263781832993 1.00030900840764 1.554269134187467 283.1854180855447 11.93853120686964
0.009000000000000001 6366.274336286657 1.000308519224506 1.554198569123921 283.116814136731 11.88379251344921
0.0091 6366.28493569395 1.000308028973447 1.554127943483105 283.0479179893276 11.82904335997728
0.0092 6366.295580093776 1.000307537663142 1.554057257151281 282.978729390455 11.77428560665327
0.009300000000000001 6366.306269525117 1.000307045302285 1.553986510016104 282.909248086737 11.71952111099542
0.0094 6366.317004027027 1.000306551899574 1.553915701966559 282.8394738243245 11.66475172775272
0.0095 6366.327783638632 1.000306057463717 1.553844832893021 282.7694063488897 11.60997930879326
0.009600000000000001 6366.338608399131 1.00030556200343 1.553773902687295 282.6990454056494 11.55520570301599
0.0097 6366.349478347792 1.000305065527435 1.553702911242547 282.6283907393534 11.50043275623449
0.0098 6366.360393523955 1.000304568044463 1.553631858453283 282.5574420942906 11.44566231107487
0.009900000000000001 6366.37135396703 1.000304069563251 1.553560744215425 282.4861992143063 11.39089620688273
0.01 6366.382359716491 1.00030357009254 1.553489568426308 282.4146618428084 11.33613627962088
0.0101 6366.393410811883 1.000303069641082 1.553418330984619 282.3428297227614 11.28138436175808
0.0102 6366.404507292817 1.000302568217631 1.55334703179046 282.2707025966864 11.22664228216255
0.0103 6366.415649198969 1.000302065830948 1.553275670745333 282.1982802067026 11.17191186602688
0.0104 6366.42683657008 1.0003015624898 1.553204247752076 282.1255622944799 11.11719493472566
0.0105 6366.438069445953 1.000301058202956 1.553132762714993 282.0525486013038 11.06249330575823
0.0106 6366.449347866459 1.000300552979193 1.553061215539751 281.9792388680165 11.00780879259792
0.0107 6366.460671871525 1.000300046827291 1.552989606133413 281.9056328350879 10.95314320463907
0.0108 6366.472041501142 1.000299539756032 1.552917934404449 281.8317302425738 10.89849834705997
0.0109 6366.483456795363 1.000299031774204 1.552846200262739 281.7575308301401 10.84387602073455
0.011 6366.494917794299 1.000298522890599 1.55277440361953 281.6830343370565 10.78927802212231
0.0111 6366.506424538117 1.000298013114007 1.552702544387523 281.6082405022379 10.73470614319295
0.0112 6366.517977067047 1.000297502453227 1.552630622480781 281.5331490641973 10.68016217128622
0.0113 6366.52957542137 1.000296990917056 1.552558637814801 281.4577597610931 10.62564788904116
0.0114 6366.541219641428 1.000296478514294 1.552486590306439 281.3820723307171 10.57116507428224
0.0115 6366.552909767614 1.000295965253743 1.552414479874041 281.3060865105061 10.51671549992288
0.0116 6366.564645840379 1.000295451144205 1.552342306437289 281.2298020375368 10.4623009338564
0.0117 6366.576427900222 1.000294936194486 1.552270069917303 281.1532186485546 10.40792313887257
0.0118 6366.5882559877 1.000294420413389 1.552197770236594 281.07633607995 10.35358387253624
0.0119 6366.600130143418 1.00029390380972 1.552125407319108 280.9991540677828 10.29928488710006
0.012 6366.612050408032 1.000293386392282 1.552052981090199 280.9216723477933 10.24502792940872
0.0121 6366.624016822248 1.000292868169881 1.551980491476616 280.843890655391 10.19081474078683
0.0122 6366.636029426821 1.00029234915132 1.551907938406533 280.7658087256658 10.13664705694378
0.0123 6366.648088262553 1.000291829345402 1.551835321809561 280.6874262934065 10.08252660788281
0.0124 6366.660193370295 1.000291308760927 1.551762641616663 280.6087430930824 10.02845511778564
0.0125 6366.672344790943 1.000290787406694 1.55168989776028 280.5297588588732 9.97443430493024
0.0126 6366.684542565436 1.000290265291502 1.55161709017424 280.4504733246689 9.920465881588212
0.0127 6366.69678673476 1.000289742424145 1.55154421879379 280.3708862240582 9.866551553914626
0.0128 6366.709077339944 1.000289218813416 1.551471283555566 280.2909972903634 9.812693021870237
0.0129 6366.72141442206 1.000288694468102 1.551398284397675 280.2108062566116 9.758891979099923
0.013 6366.733798022219 1.000288169396989 1.551325221259622 280.1303128555754 9.705150112859359
0.0131 6366.746228181576 1.00028764360886 1.551252094082294 280.0495168197557 9.651469103902102
0.0132 6366.758704941324 1.000287117112491 1.55117890280801 279.9684178813931 9.597850626386954
0.0133 6366.771228342694 1.000286589916656 1.551105647380554 279.8870157724858 9.544296347789432
0.0134 6366.783798426957 1.000286062030124 1.551032327745061 279.8053102247781 9.490807928794016
0.0135 6366.79641523542 1.000285533461657 1.550958943848113 279.7233009697715 9.437387023202463
0.0136 6366.809078809427 1.000285004220012 1.55088549563772 279.6409877387254 9.384035277834714
0.0137 6366.821789190357 1.000284474313943 1.55081198306327 279.5583702626803 9.330754332445487
0.0138 6366.834546419624 1.000283943752193 1.550738406075606 279.4754482724464 9.277545819618211
0.0139 6366.847350538674 1.000283412543503 1.550664764626981 279.3922214986209 9.224411364678492
0.014 6366.860201588986 1.000282880696604 1.550591058671063 279.3086896715939 9.171352585600252
0.0141 6366.873099612072 1.000282348220222 1.550517288162902 279.2248525215313 9.118371092897387
0.0142 6366.886044649475 1.000281815123074 1.550443453059007 279.1407097784153 9.065468489553353
0.0143 6366.899036742767 1.000281281413869 1.550369553317294 279.0562611720155 9.012646370906223
0.0144 6366.912075933548 1.000280747101309 1.550295588897081 278.9715064319361 8.959906324582567
0.0145 6366.925162263448 1.000280212194087 1.550221559759079 278.8864452875858 8.907249930383545
0.0146 6366.938295774125 1.000279676700886 1.550147465865476 278.8010774681906 8.85467876019751
0.0147 6366.951476507261 1.000279140630381 1.55007330717981 278.7154027028045 8.802194377913011
0.0148 6366.964704504564 1.000278603991236 1.549999083667054 278.629420720334 8.749798339339291
0.0149 6366.977979807769 1.000278066792107 1.5499247952936 278.5431312495024 8.697492192091222
0.015 6366.991302458632 1.000277529041639 1.549850442027232 278.4565340188909 8.645277475521722
0.0151 6367.004672498933 1.000276990748465 1.549776023837162 278.3696287569331 8.593155720625722
0.0152 6367.018089970473 1.000276451921208 1.549701540694013 278.2824151919266 8.541128449955405
0.0153 6367.031554915076 1.000275912568479 1.549626992569784 278.1948930520092 8.489197177514866
0.0154 6367.045067374583 1.000275372698881 1.549552379437892 278.1070620652125 8.437363408701124
0.0155 6367.058627390858 1.000274832320999 1.549477701273183 278.0189219594262 8.385628640192833
0.0156 6367.072235005781 1.00027429144341 1.549402958051886 277.9304724624216 8.333994359874765
0.0157 6367.085890261251 1.000273750074677 1.549328149751628 277.8417133018696 8.282462046759107
0.0158 6367.09959319918 1.000273208223349 1.549253276351466 277.7526442053289 8.231033170890058
0.0159 6367.113343861501 1.000272665897963 1.549178337831837 277.6632649002457 8.179709193256132
0.016 6367.127142290156 1.000272123107043 1.549103334174545 277.5735751139836 8.128491565719989
0.0161 6367.140988527108 1.000271579859096 1.549028265362846 277.4835745737995 8.077381730918303
0.0162 6367.154882614327 1.000271036162618 1.548953131381356 277.3932630068738 8.026381122192737
0.0163 6367.168824593798 1.000270492026088 1.548877932216081 277.3026401403098 7.975491163504568
0.0164 6367.182814507518 1.00026994745797 1.548802667854451 277.2117057011341 7.924713269350033
0.0165 6367.19685239749 1.000269402466715 1.548727338285271 277.120459416314 7.874048844686248
0.0166 6367.210938305732 1.000268857060755 1.548651943498701 277.0289010127402 7.823499284838047
0.0167 6367.225072274267 1.000268311248507 1.548576483486345 276.9370302172618 7.773065975435022
0.0168 6367.239254345129 1.000267765038374 1.548500958241156 276.8448467566631 7.722750292316522
0.0169 6367.253484560355 1.000267218438739 1.54842536775745 276.7523503576925 7.672553601466668
0.017 6367.267762961991 1.000266671457968 1.548349712030986 276.6595407470576 7.622477258930537
0.0171 6367.282089592088 1.000266124104413 1.548273991058847 276.56641765143 7.572522610737582
0.0172 6367.296464492699 1.000265576386405 1.548198204839514 276.472980797458 7.522690992828909
0.0173 6367.310887705882 1.000265028312258 1.548122353372823 276.3792299117662 7.472983730978911
0.0174 6367.325359273698 1.000264479890268 1.548046436660008 276.2851647209612 7.423402140720847
0.0175 6367.33987923821 1.000263931128712 1.547970454703649 276.1907849516382 7.37394752727315
0.0176 6367.35444764148 1.000263382035847 1.547894407507692 276.0960903303802 7.324621185463423
0.0177 6367.369064525571 1.000262832619911 1.547818295077484 276.0010805837882 7.275424399668555
0.0178 6367.383729932545 1.000262282889124 1.547742117419689 275.905755438457 7.226358443727857
0.0179 6367.398443904463 1.000261732851685 1.547665874542342 275.8101146209877 7.177424580875616
0.018 6367.413206483383 1.00026118251577 1.547589566454846 275.7141578580107 7.128624063680318
0.0181 6367.428017711358 1.000260631889538 1.547513193167944 275.6178848761741 7.079958133966461
0.0182 6367.442877630438 1.000260080981127 1.547436754693714 275.5212954021498 7.031428022746383
0.0183 6367.457786282669 1.00025952979865 1.54736025104565 275.424389162651 6.98303495015878
0.0184 6367.472743710088 1.000258978350202 1.547283682238499 275.3271658844263 6.93478012539614
0.0185 6367.487749954727 1.000258426643854 1.547207048288421 275.2296252942718 6.886664746641927
0.0186 6367.502805058612 1.000257874687656 1.547130349212858 275.1317671190249 6.838690000999843
0.0187 6367.517909063756 1.000257322489634 1.547053585030641 275.0335910855878 6.790857064438509
0.0188 6367.533062012166 1.000256770057793 1.546976755761874 274.9350969209221 6.743167101722392
0.0189 6367.548263945838 1.000256217400114 1.546899861428048 274.8362843520543 6.695621266349517
0.019 6367.563514906756 1.000255664524552 1.546822902051953 274.7371531060879 6.64822070049284
0.0191 6367.578814936892 1.000255111439042 1.546745877657691 274.6377029102031 6.600966534936811
0.0192 6367.594164078208 1.000254558151493 1.546668788270687 274.537933491651 6.553859889012152
0.0193 6367.609562372648 1.00025400466979 1.546591633917687 274.4378445777892 6.506901870551097
0.0194 6367.625009862145 1.000253451001793 1.546514414626747 274.3374358960581 6.460093575815541
0.0195 6367.640506588615 1.000252897155336 1.546437130427251 274.2367071740044 6.413436089448467
0.0196 6367.656052593959 1.000252343138229 1.546359781349843 274.1356581392696 6.366930484409719
0.0197 6367.67164792006 1.000251788958256 1.5462823674265 274.0342885196131 6.320577821929175
0.0198 6367.687292608784 1.000251234623175 1.546204888690453 273.932598042907 6.274379151447178
0.0199 6367.702986701978 1.000250680140718 1.546127345176297 273.8305864371413 6.228335510561435
0.02 6367.71873024147 1.00025012551859 1.546049736919846 273.728253430448 6.182447924982798
0.0201 6367.734523269067 1.000249570764469 1.545972063958241 273.6255987510657 6.136717408465461
0.0202 6367.750365826555 1.000249015886007 1.545894326329886 273.5226221273923 6.091144962777953
0.0203 6367.7662579557 1.000248460890827 1.545816524074452 273.4193232879501 6.045731577635454
