#theta R n z T P_w
0 6365.5 1.000348786973673 1.560324351282931 288.15 16.88121107744155
0.0001 6365.506698014227 1.000348421917191 1.560258925085044 288.1064629075221 16.83394262396507
0.0002 6365.513437687277 1.000348055085969 1.560193452860529 288.0626550327023 16.78649755905991
0.0003 6365.520219048639 1.000347686486879 1.560127934381658 288.0185761838474 16.73887760905003
0.0004 6365.527042127952 1.000347316126817 1.56006236942192 287.9742261683122 16.69108450595947
0.0005 6365.533906955002 1.000346944012717 1.559996757755905 287.929604792488 16.6431199874162
0.0006000000000000001 6365.540813559714 1.000346570151537 1.559931099159391 287.8847118618559 16.59498579662555
0.0007 6365.547761972164 1.00034619455027 1.559865393409287 287.839547180933 16.54668368222868
0.0008 6365.554752222567 1.000345817215937 1.559799640283731 287.7941105533145 16.49821539826226
0.0009000000000000001 6365.561784341283 1.000345438155589 1.559733839561923 287.7484017816613 16.44958270406068
0.001 6365.568858358811 1.000345057376308 1.559667991024261 287.7024206677301 16.40078736420176
0.0011 6365.575974305795 1.000344674885205 1.559602094452394 287.6561670123314 16.35183114837681
0.0012 6365.583132213017 1.000344290689421 1.559536149629031 287.6096406153891 16.30271583136678
0.0013 6365.5903321114 1.000343904796124 1.559470156338141 287.5628412758991 16.25344319291151
0.0014 6365.597574032005 1.000343517212515 1.559404114364788 287.5157687919644 16.20401501765983
0.0015 6365.604858006033 1.00034312794582 1.55933802349525 287.4684229607836 16.15443309506928
0.0016 6365.61218406482 1.000342737003296 1.559271883516978 287.4208035786686 16.10469921933649
0.0017 6365.619552239842 1.000342344392228 1.559205694218633 287.3729104410266 16.05481518928999
0.0018 6365.626962562707 1.000341950119929 1.559139455390038 287.324743342402 16.00478280834434
0.0019 6365.634415065163 1.00034155419374 1.559073166822204 287.2763020764404 15.95460388437363
0.002 6365.641909779089 1.000341156621031 1.559006828307314 287.2275864359243 15.90428022965853
0.0021 6365.649446736497 1.000340757409198 1.558940439638791 287.1785962127673 15.85381366078969
0.0022 6365.657025969537 1.000340356565665 1.558874000611192 287.1293311980079 15.80320599857105
0.0023 6365.664647510487 1.000339954097884 1.55880751102033 287.0797911818335 15.752459067953
0.0024 6365.672311391758 1.000339550013335 1.558740970663175 287.0299759535741 15.70157469793479
0.0025 6365.680017645891 1.000339144319521 1.558674379337942 286.9798853017086 15.65055472147864
0.0026 6365.687766305558 1.000338737023976 1.558607736844011 286.9295190138704 15.59940097542345
0.0027 6365.69555740356 1.000338328134258 1.558541042981971 286.8788768768594 15.54811530040414
0.0028 6365.703390972827 1.000337917657951 1.558474297553712 286.8279586766242 15.4966995407405
0.0029 6365.711267046415 1.000337505602666 1.558407500362196 286.7767641983036 15.44515554438569
0.003 6365.719185657509 1.000337091976041 1.558340651211692 286.7252932261907 15.39348516279643
0.0031 6365.727146839418 1.000336676785737 1.558273749907669 286.673545543781 15.34169025088643
0.0032 6365.73515062558 1.000336260039441 1.55820679625687 286.62152093373 15.28977266689019
0.0033 6365.743197049553 1.000335841744865 1.558139790067212 286.5692191779075 15.23773427232131
0.0034 6365.751286145021 1.000335421909749 1.558072731147788 286.5166400573611 15.18557693184161
0.0035 6365.759417945793 1.000335000541852 1.558005619309034 286.4637833523465 15.13330251319494
0.0036 6365.767592485797 1.000334577648963 1.557938454362581 286.4106488423212 15.08091288710513
0.0037 6365.775809799085 1.00033415323889 1.557871236121303 286.3572363059506 15.02840992718551
0.0038 6365.784069919828 1.000333727319471 1.557803964399228 286.3035455211196 14.97579550985371
0.0039 6365.792372882319 1.000333299898561 1.557736639011801 286.2495762649272 14.92307151422872
0.004 6365.800718720968 1.000332870984044 1.55766925977554 286.1953283137094 14.87023982205661
0.0041 6365.809107470305 1.000332440583825 1.55760182650837 286.1408014430161 14.81730231758957
0.004200000000000001 6365.817539164977 1.000332008705831 1.557534339029342 286.0859954276524 14.76426088752808
0.0043 6365.826013839747 1.000331575358014 1.557466797158791 286.0309100416429 14.71111742088802
0.0044 6365.834531529495 1.000331140548347 1.557399200718421 285.9755450582851 14.65787380895328
0.004500000000000001 6365.843092269216 1.000330704284825 1.557331549531084 285.9199002500962 14.60453194512537
0.0046 6365.85169609402 1.000330266575467 1.557263843420889 285.8639753888723 14.55109372488092
0.0047 6365.860343039129 1.000329827428313 1.557196082213277 285.8077702456584 14.49756104564345
0.0048 6365.86903313988 1.000329386851423 1.55712826573495 285.7512845907785 14.44393580671163
0.0049 6365.877766431719 1.00032894485288 1.557060393813875 285.6945181938235 14.39021990914759
0.005 6365.886542950207 1.000328501440787 1.556992466279301 285.6374708236571 14.33641525568193
0.0051 6365.895362731011 1.00032805662327 1.55692448296173 285.5801422484277 14.28252375062403
0.005200000000000001 6365.904225809913 1.000327610408472 1.556856443692983 285.5225322355685 14.22854729976077
0.0053 6365.913132222798 1.000327162804558 1.556788348306194 285.464640551815 14.17448781027169
0.0054 6365.922082005663 1.000326713819715 1.556720196635669 285.4064669631874 14.12034719061057
0.005500000000000001 6365.931075194612 1.000326263462147 1.556651988517147 285.3480112350202 14.06612735043107
0.0056 6365.940111825853 1.000325811740079 1.556583723787593 285.2892731319561 14.01183020047876
0.0057 6365.9491919357 1.000325358661754 1.556515402285287 285.2302524179521 13.95745765249406
0.0058 6365.958315560573 1.000324904235435 1.556447023849816 285.1709488562736 13.90301161910403
0.0059 6365.967482736995 1.000324448469403 1.556378588322033 285.1113622095298 13.84849401375187
0.006 6365.976693501593 1.000323991371959 1.556310095544144 285.0514922396441 13.79390675056648
0.0061 6365.985947891095 1.000323532951421 1.556241545359662 284.9913387078835 13.73925174428595
0.006200000000000001 6365.99524594233 1.000323073216124 1.556172937613369 284.9309013748533 13.68453091014836
0.0063 6366.004587692231 1.000322612174423 1.556104272151424 284.8701800004964 13.62974616378786
0.0064 6366.013973177826 1.000322149834688 1.556035548821268 284.809174344129 13.57489942116239
0.006500000000000001 6366.023402436245 1.000321686205307 1.555966767471699 284.7478841644055 13.51999259841728
0.0066 6366.032875504714 1.000321221294686 1.555897927952754 284.6863092193593 13.4650276118177
0.0067 6366.042392420559 1.000320755111247 1.555829030115868 284.6244492663676 13.41000637761219
0.0068 6366.051953221199 1.000320287663426 1.55576007381383 284.5623040622048 13.35493081197501
0.006900000000000001 6366.061557944151 1.000319818959677 1.555691058900731 284.4998733630185 13.29980283087975
0.007 6366.071206627026 1.000319349008471 1.555621985231953 284.4371569243298 13.24462434999401
0.0071 6366.080899307529 1.000318877818292 1.555552852664291 284.3741545010624 13.18939728459987
0.007200000000000001 6366.090636023457 1.000318405397639 1.555483661055817 284.3108658475315 13.13412354947766
0.0073 6366.1004168127 1.000317931755029 1.555414410265992 284.2472907174491 13.07880505880519
0.0074 6366.110241713241 1.000317456898991 1.555345100155616 284.183428863936 13.02344372606207
0.007500000000000001 6366.120110763149 1.000316980838067 1.555275730586801 284.1192800395337 12.96804146393355
0.0076 6366.130024000587 1.000316503580817 1.555206301423077 284.0548439961866 12.91260018418886
0.0077 6366.139981463804 1.000316025135811 1.555136812529236 283.9901204852716 12.85712179760022
0.007800000000000001 6366.14998319114 1.000315545511634 1.555067263771511 283.9251092575922 12.801608213831
0.007900000000000001 6366.160029221018 1.000315064716884 1.554997655017467 283.8598100633843 12.74606134133402
0.008 6366.17011959195 1.000314582760172 1.554927986136015 283.7942226523281 12.69048308725475
0.0081 6366.180254342531 1.000314099650122 1.554858256997413 283.7283467735482 12.63487535732418
0.008200000000000001 6366.190433511444 1.000313615395368 1.554788467473357 283.6621821756133 12.57924005575184
0.0083 6366.200657137452 1.000313130004558 1.554718617436832 283.5957286065603 12.52357908513843
0.008400000000000001 6366.210925259404 1.000312643486351 1.554648706762237 283.5289858138761 12.46789434635363
0.008500000000000001 6366.221237916227 1.000312155849417 1.554578735325334 283.4619535445216 12.41218773844855
0.0086 6366.231595146934 1.000311667102438 1.554508703003232 283.3946315449315 12.3564611585482
0.008700000000000001 6366.241996990612 1.000311177254106 1.55443860967448 283.3270195610202 12.30071650174888
0.008800000000000001 6366.252443486434 1.000310686313122 1.554368455218945 283.2591173381819 12.24495566101061
0.0089 6366.262934673645 1.000310194288201 1.554298239517924 283.1909246213085 12.18918052706409
0.009000000000000001 6366.273470591571 1.000309701188063 1.554227962454044 283.122441154789 12.1333929883029
0.0091 6366.284051279615 1.000309207021442 1.554157623911346 283.0536666825045 12.07759493067109
0.0092 6366.294676777255 1.000308711797077 1.554087223775283 282.984600947845 12.02178823756986
0.009300000000000001 6366.305347124043 1.000308215523718 1.554016761932673 282.9152436937219 11.96597478975934
0.0094 6366.316062359606 1.000307718210124 1.553946238271709 282.8455946625617 11.91015646524599
0.0095 6366.326822523642 1.000307219865062 1.553875652682004 282.7756535963239 11.854335139189
0.009600000000000001 6366.337627655927 1.000306720497305 1.553805005054556 282.7054202364774 11.79851268377369
0.0097 6366.348477796301 1.000306220115636 1.553734295281773 282.6348943240417 11.7426909681368
0.0098 6366.35937298468 1.000305718728844 1.553663523257408 282.5640755995813 11.68687185825385
0.009900000000000001 6366.370313261046 1.000305216345726 1.553592688876706 282.4929638031994 11.63105721682683
0.01 6366.381298665452 1.000304712975084 1.553521792036254 282.4215586745617 11.5752489031951
0.0101 6366.392329238018 1.000304208625728 1.553450832634026 282.3498599528847 11.51944877321843
0.0102 6366.403405018931 1.000303703306473 1.553379810569461 282.2778673769475 11.46365867917878
0.0103 6366.414526048445 1.000303197026139 1.553308725743358 282.2055806851093 11.40788046968645
0.0104 6366.425692366876 1.000302689793553 1.553237578057953 282.1329996153039 11.35211598956798
0.0105 6366.436904014609 1.000302181617546 1.553166367416874 282.0601239050392 11.29636707975884
0.0106 6366.448161032089 1.000301672506955 1.553095093725151 281.9869532914212 11.24063557721426
0.0107 6366.459463459823 1.000301162470618 1.553023756889279 281.913487511148 11.18492331479743
0.0108 6366.470811338383 1.000300651517382 1.5529523568171 281.8397263005098 11.12923212117247
0.0109 6366.482204708398 1.000300139656092 1.552880893417922 281.7656693954126 11.07356382071533
0.011 6366.49364361056 1.000299626895603 1.552809366602435 281.6913165313603 11.01792023339352
0.0111 6366.505128085618 1.000299113244766 1.552737776282769 281.6166674434843 10.96230317468167
0.0112 6366.516658174379 1.000298598712441 1.552666122372463 281.5417218665378 10.90671445545035
0.0113 6366.528233917707 1.000298083307485 1.552594404786537 281.4664795349016 10.85115588186406
0.0114 6366.539855356524 1.000297567038763 1.552522623441298 281.3909401825957 10.79562925528368
0.0115 6366.551522531805 1.000297049915135 1.552450778254611 281.3151035432678 10.74013637215163
0.0116 6366.563235484581 1.000296531945467 1.55237886914567 281.2389693502226 10.68467902390767
0.0117 6366.574994255935 1.000296013138625 1.552306896035184 281.1625373364221 10.62925899688298
0.0118 6366.586798887005 1.000295493503476 1.552234858845192 281.0858072344676 10.57387807218178
0.0119 6366.598649418979 1.000294973048885 1.552162757499247 281.008778776635 10.51853802560169
0.012 6366.610545893096 1.000294451783721 1.55209059192224 280.9314516948756 10.46324062752845
0.0121 6366.622488350645 1.000293929716849 1.552018362040585 280.8538257208091 10.40798764282674
0.0122 6366.634476832964 1.000293406857136 1.551946067782053 280.7759005857364 10.35278083074394
0.0123 6366.646511381438 1.000292883213447 1.55187370907587 280.6976760206506 10.29762194481404
0.0124 6366.658592037503 1.000292358794644 1.551801285852703 280.6191517562319 10.24251273274922
0.0125 6366.670718842637 1.000291833609591 1.551728798044638 280.5403275228585 10.18745493634428
0.0126 6366.682891838365 1.000291307667148 1.551656245585187 280.4612030506254 10.13245029138528
0.0127 6366.695111066258 1.000290780976171 1.551583628409305 280.3817780693256 10.07750052753376
0.0128 6366.707376567926 1.000290253545516 1.55151094645338 280.3020523084805 10.02260736824408
0.0129 6366.719688385028 1.000289725384036 1.551438199655215 280.2220254973157 9.967772530644359
0.013 6366.732046559261 1.000289196500578 1.551365387954058 280.1416973648028 9.912997725462366
0.0131 6366.744451132363 1.000288666903987 1.551292511290604 280.0610676396412 9.858284656911096
0.0132 6366.756902146112 1.000288136603104 1.55121956960694 279.9801360502705 9.803635022594969
0.0133 6366.769399642326 1.000287605606766 1.551146562846652 279.8989023248818 9.749050513416259
0.0134 6366.781943662861 1.000287073923804 1.551073490954695 279.817366191406 9.694532813465944
0.0135 6366.794534249608 1.000286541563045 1.551000353877505 279.7355273775496 9.640083599946633
0.0136 6366.807171444499 1.00028600853331 1.550927151562914 279.6533856107588 9.585704543048422
0.0137 6366.819855289496 1.000285474843415 1.550853883960197 279.5709406182731 9.531397305884163
0.0138 6366.8325858266 1.000284940502168 1.550780551020106 279.4881921271011 9.477163544373939
0.0139 6366.845363097842 1.000284405518372 1.550707152694739 279.4051398640271 9.423004907149723
0.014 6366.85818714529 1.000283869900824 1.550633688937717 279.3217835556164 9.368923035460419
0.0141 6366.871058011038 1.000283333658313 1.550560159704038 279.2381229282513 9.314919563096321
0.0142 6366.883975737217 1.000282796799618 1.550486564950152 279.1541577080892 9.260996116264185
0.0143 6366.896940365984 1.000282259333515 1.550412904633945 279.0698876211044 9.207154313516375
0.0144 6366.909951939527 1.000281721268768 1.550339178714712 278.985312393076 9.153395765646009
0.0145 6366.923010500061 1.000281182614133 1.550265387153185 278.9004317496059 9.099722075601534
0.0146 6366.936116089829 1.000280643378359 1.550191529911572 278.8152454161126 9.04613483838668
0.0147 6366.9492687511 1.000280103570185 1.550117606953439 278.7297531178491 8.992635640975847
0.0148 6366.962468526169 1.000279563198338 1.550043618243827 278.6439545799029 8.939226062218729
0.0149 6366.975715457354 1.000279022271538 1.549969563749216 278.557849527196 8.885907672745523
0.015 6366.989009586999 1.000278480798495 1.549895443437451 278.4714376845085 8.832682034887263
0.0151 6367.002350957468 1.000277938787905 1.549821257277856 278.3847187764549 8.77955070256742
0.0152 6367.015739611151 1.000277396248457 1.549747005241184 278.2976925275196 8.726515221230482
0.0153 6367.029175590455 1.000276853188825 1.549672687299576 278.2103586620455 8.673577127741927
0.0154 6367.042658937808 1.000276309617675 1.549598303426654 278.1227169042508 8.620737950306799
0.0155 6367.056189695657 1.000275765543658 1.549523853597371 278.0347669782299 8.567999208378007
0.0156 6367.06976790647 1.000275220975413 1.549449337788197 277.9465086079471 8.515362412561773
0.0157 6367.083393612729 1.000274675921569 1.54937475597696 277.8579415172602 8.462829064541324
0.0158 6367.097066856934 1.000274130390739 1.549300108142953 277.7690654299266 8.410400656990408
0.0159 6367.1107876816 1.000273584391524 1.549225394266836 277.6798800695973 8.358078673480435
0.016 6367.124556129258 1.00027303793251 1.549150614330701 277.5903851598226 8.305864588395337
0.0161 6367.138372242451 1.000272491022271 1.549075768318094 277.5005804240703 8.253759866853853
0.0162 6367.152236063735 1.000271943669365 1.54900085621392 277.4104655857253 8.201765964621993
0.0163 6367.166147635679 1.000271395882336 1.548925878004514 277.3200403680838 8.149884328022845
0.0164 6367.180107000863 1.000270847669712 1.548850833677639 277.2293044943889 8.098116393870784
0.0165 6367.194114201877 1.000270299040007 1.548775723222448 277.1382576878008 8.04646358936896
0.0166 6367.20816928132 1.000269750001717 1.548700546629494 277.0468996714206 7.994927332038039
0.0167 6367.222272281799 1.000269200563324 1.548625303890738 276.9552301683083 7.943509029641962
0.0168 6367.236423245929 1.000268650733293 1.548549994999567 276.8632489014584 7.892210080091115
0.0169 6367.250622216335 1.000268100520071 1.548474619950751 276.7709555938244 7.841031871372909
0.017 6367.264869235641 1.000267549932089 1.548399178740451 276.678349968336 7.789975781479441
0.0171 6367.27916434648 1.000266998977762 1.548323671366219 276.5854317478814 7.739043178316256
0.0172 6367.293507591489 1.000266447665483 1.548248097827008 276.4922006553196 7.6882354196283
0.0173 6367.307899013308 1.000265896003632 1.548172458123181 276.3986564134974 7.637553852929703
0.0174 6367.322338654579 1.000265344000566 1.548096752256477 276.3047987452381 7.586999815418163
0.0175 6367.336826557944 1.000264791664625 1.548020980230007 276.2106273733651 7.536574633909344
0.0176 6367.351362766047 1.000264239004132 1.547945142048286 276.1161420206957 7.486279624756
0.0177 6367.365947321532 1.000263686027386 1.547869237717195 276.0213424100415 7.436116093771199
0.0178 6367.38058026704 1.00026313274267 1.547793267244034 275.9262282642375 7.386085336167906
0.0179 6367.395261645212 1.000262579158246 1.547717230637422 275.8307993061247 7.33618863647426
0.018 6367.409991498683 1.000262025282353 1.547641127907393 275.7350552585621 7.286427268465383
0.0181 6367.424769870087 1.000261471123213 1.54756495906533 275.6389958444319 7.236802495092831
0.0182 6367.439596802053 1.000260916689025 1.547488724123994 275.5426207866579 7.187315568420893
0.0183 6367.454472337203 1.000260361987965 1.547412423097521 275.4459298081819 7.137967729542432
0.0184 6367.469396518152 1.000259807028191 1.547336056001394 275.3489226320102 7.088760208531967
0.0185 6367.484369387511 1.000259251817836 1.547259622852465 275.251598981179 7.039694224357222
0.0186 6367.499390987879 1.000258696365012 1.54718312366893 275.1539585787895 6.990770984827707
0.0187 6367.514461361847 1.000258140677806 1.547106558470357 275.056001147996 6.94199168652014
0.0188 6367.529580551998 1.000257584764285 1.547029927277661 274.957726412012 6.893357514713783
0.0189 6367.544748600902 1.000257028632491 1.54695323011306 274.8591340941338 6.844869643335358
0.019 6367.55996555112 1.000256472290442 1.546876467000205 274.7602239177226 6.796529234884335
0.0191 6367.575231445196 1.000255915746133 1.546799637964011 274.6609956062283 6.748337440379578
0.0192 6367.590546325664 1.000255359007534 1.54672274303076 274.5614488831837 6.700295399292344
0.0193 6367.605910235045 1.000254802082592 1.546645782228031 274.4615834722102 6.652404239486047
0.0194 6367.621323215842 1.000254244979226 1.5465687555848 274.3613990970297 6.604665077159739
0.0195 6367.636785310543 1.000253687705331 1.546491663131322 274.2608954814704 6.557079016789617
0.0196 6367.65229656162 1.000253130268778 1.546414504899165 274.160072349467 6.509647151068676
0.0197 6367.667857011528 1.000252572677412 1.546337280921263 274.0589294250666 6.462370560850173
0.0198 6367.683466702702 1.000252014939049 1.546259991231797 273.9574664324344 6.415250315092026
0.0199 6367.69912567756 1.000251457061481 1.546182635866334 273.8556830958599 6.368287470802165
0.02 6367.714833978496 1.000250899052473 1.546105214861677 273.7535791397744 6.321483072990253
0.0201 6367.730591647889 1.000250340919762 1.546027728255979 273.6511542887214 6.274838154598689
0.0202 6367.746398728092 1.000249782671059 1.545950176088664 273.5484082674042 6.228353736469884
0.0203 6367.762255261435 1.000249224314046 1.54587255840049 273.4453408006738 6.182030827287297
