#theta R n z T P_w
0 6365.5 1.000289742353685 1.560324351282931 288.15 3.751380239431457
0.0001 6365.506698014227 1.000289524791011 1.560244943802931 288.1064629075221 3.740876138658905
0.0002 6365.513446588079 1.000289305764338 1.560165520166612 288.0625971774851 3.730318884022467
0.0003 6365.520245732087 1.000289085277154 1.560086080256809 288.0184027414315 3.719708992811016
0.0004 6365.52709545686 1.00028886333297 1.560006623956797 287.9738795304128 3.709046984362055
0.0005 6365.53399577308 1.000288639935313 1.559927151150556 287.9290274749782 3.698333380022758
0.0006000000000000001 6365.540946691509 1.000288415087735 1.559847661722463 287.8838465051921 3.687568703117966
0.0007 6365.547948222981 1.000288188793803 1.559768155557529 287.8383365506223 3.676753478910969
0.0008 6365.555000378408 1.000287961057108 1.559688632541221 287.7924975403461 3.665888234568397
0.0009000000000000001 6365.562103168776 1.00028773188126 1.559609092559604 287.7463294029557 3.654973499124976
0.001 6365.569256605144 1.000287501269888 1.559529535499234 287.6998320665647 3.644009803448134
0.0011 6365.576460698647 1.000287269226639 1.559449961247241 287.653005458796 3.632997680198302
0.0012 6365.583715460492 1.000287035755183 1.559370369691221 287.6058495067995 3.621937663796071
0.0013 6365.591020901962 1.000286800859208 1.55929076071932 287.5583641372463 3.61083029038364
0.0014 6365.59837703441 1.000286564542419 1.559211134220273 287.5105492763345 3.599676097788936
0.0015 6365.605783869266 1.000286326808545 1.55913149008316 287.4624048497716 3.588475625484102
0.0016 6365.613241418027 1.00028608766133 1.55905182819775 287.4139307828217 3.577229414559026
0.0017 6365.620749692269 1.000285847104537 1.558972148454277 287.3651270002523 3.565938007671361
0.0018 6365.628308703634 1.000285605141952 1.558892450743436 287.3159934263816 3.554601949019803
0.0019 6365.635918463837 1.000285361777374 1.558812734956477 287.2665299850609 3.543221784302153
0.002 6365.643578984666 1.000285117014625 1.558733000985189 287.2167365996683 3.53179806067607
0.0021 6365.65129027798 1.000284870857544 1.558653248721813 287.1666131931328 3.520331326726494
0.0022 6365.659052355704 1.000284623309988 1.558573478059137 287.1161596879223 3.508822132424825
0.0023 6365.66686522984 1.000284374375833 1.558493688890398 287.0653760060376 3.497271029089398
0.0024 6365.674728912455 1.000284124058971 1.558413881109448 287.014262069042 3.485678569353933
0.0025 6365.682643415688 1.000283872363317 1.558334054610523 286.9628177980261 3.474045307121109
0.0026 6365.690608751745 1.000283619292798 1.558254209288445 286.9110431136545 3.462371797534837
0.0027 6365.698624932905 1.000283364851362 1.558174345038481 286.8589379361191 3.450658596931036
0.0028 6365.706691971511 1.000283109042975 1.55809446175647 286.8065021851802 3.438906262808377
0.0029 6365.714809879977 1.000282851871619 1.558014559338662 286.7537357801488 3.4271153537856
0.003 6365.722978670785 1.000282593341295 1.557934637681928 286.7006386398983 3.415286429565422
0.0031 6365.731198356484 1.00028233345602 1.557854696683466 286.6472106828531 3.403420050893085
0.0032 6365.739468949691 1.000282072219828 1.55777473624115 286.5934518270059 3.391516779521429
0.0033 6365.74779046309 1.000281809636771 1.557694756253274 286.5393619899177 3.37957717817194
0.0034 6365.756162909429 1.000281545710919 1.557614756618602 286.4849410887122 3.367601810494428
0.0035 6365.764586301528 1.000281280446355 1.557534737236433 286.4301890400696 3.355591241026706
0.0036 6365.773060652268 1.000281013847183 1.557454698006592 286.3751057602566 3.343546035161967
0.0037 6365.7815859746 1.000280745917522 1.557374638829301 286.319691165102 3.33146675910444
0.0038 6365.790162281536 1.000280476661505 1.557294559605418 286.2639451700151 3.319353979834062
0.0039 6365.798789586158 1.000280206083286 1.557214460236143 286.2078676899736 3.307208265064664
0.004 6365.807467901608 1.000279934187031 1.557134340623326 286.1514586395473 3.295030183209809
0.0041 6365.816197241097 1.000279660976924 1.557054200669219 286.0947179328685 3.28282030333708
0.004200000000000001 6365.824977617897 1.000279386457166 1.556974040276586 286.0376454836677 3.270579195136375
0.0043 6365.833809045346 1.00027911063197 1.556893859348668 285.9802412052494 3.258307428875432
0.0044 6365.842691536845 1.000278833505569 1.556813657789273 285.9225050105046 3.246005575362961
0.004500000000000001 6365.851625105858 1.000278555082209 1.556733435502602 285.864436811922 3.233674205911719
0.0046 6365.860609765913 1.000278275366152 1.556653192393445 285.806036521565 3.221313892294023
0.0047 6365.869645530599 1.000277994361675 1.556572928367049 285.7473040511067 3.208925206709798
0.0048 6365.878732413569 1.000277712073072 1.556492643329142 285.6882393118002 3.196508721740834
0.0049 6365.887870428537 1.000277428504649 1.556412337185958 285.6288422145088 3.184065010317501
0.005 6365.89705958928 1.00027714366073 1.556332009844271 285.5691126696819 3.171594645674277
0.0051 6365.906299909634 1.000276857545651 1.556251661211241 285.5090505873785 3.159098201315184
0.005200000000000001 6365.915591403499 1.000276570163764 1.556171291194685 285.4486558772559 3.146576250971789
0.0053 6365.924934084835 1.000276281519436 1.55609089970275 285.3879284485751 3.134029368564927
0.0054 6365.93432796766 1.000275991617048 1.556010486644197 285.3268682102129 3.121458128167621
0.005500000000000001 6365.943773066057 1.000275700460993 1.555930051928217 285.2654750706323 3.108863103959494
0.0056 6365.953269394164 1.000275408055683 1.555849595464553 285.2037489379358 3.096244870198209
0.0057 6365.962816966182 1.000275114405538 1.555769117163395 285.1416897198177 3.083604001170278
0.0058 6365.972415796369 1.000274819514998 1.555688616935433 285.0792973236001 3.070941071158853
0.0059 6365.982065899045 1.000274523388512 1.555608094691895 285.0165716562091 3.05825665439947
0.006 6365.991767288584 1.000274226030543 1.555527550344509 284.9535126242039 3.045551325046627
0.0061 6366.001519979422 1.000273927445571 1.555446983805413 284.8901201337538 3.032825657129589
0.006200000000000001 6366.011323986053 1.000273627638085 1.555366394987345 284.8263940906558 3.020080224516621
0.0063 6366.021179323026 1.000273326612591 1.555285783803485 284.762334400334 3.007315600875642
0.0064 6366.031086004949 1.000273024373605 1.555205150167533 284.6979409678346 2.994532359633749
0.006500000000000001 6366.041044046488 1.000272720925657 1.555124493993678 284.6332136978311 2.981731073939157
0.0066 6366.051053462364 1.000272416273289 1.555043815196613 284.5681524946366 2.968912316624325
0.0067 6366.061114267355 1.000272110421058 1.554963113691543 284.5027572621915 2.956076660164447
0.0068 6366.071226476297 1.000271803373531 1.554882389394142 284.4370279040699 2.943224676639513
0.006900000000000001 6366.081390104078 1.000271495135289 1.554801642220614 284.370964323491 2.930356937697564
0.007 6366.091605165645 1.000271185710923 1.554720872087623 284.3045664233076 2.917474014513368
0.0071 6366.101871675998 1.000270875105039 1.554640078912404 284.237834106012 2.904576477750639
0.007200000000000001 6366.112189650194 1.000270563322252 1.554559262612621 284.1707672737415 2.891664897524307
0.0073 6366.122559103342 1.000270250367191 1.554478423106458 284.1033658282789 2.878739843361698
0.0074 6366.132980050606 1.000269936244497 1.554397560312631 284.0356296710582 2.865801884164916
0.007500000000000001 6366.143452507206 1.000269620958819 1.554316674150331 283.9675587031587 2.852851588171045
0.0076 6366.153976488413 1.000269304514822 1.554235764539245 283.8991528253167 2.839889522915801
0.0077 6366.164552009552 1.000268986917179 1.554154831399595 283.8304119379139 2.826916255192776
0.007800000000000001 6366.175179086001 1.000268668170576 1.554073874652076 283.7613359409951 2.813932351018364
0.007900000000000001 6366.185857733191 1.000268348279707 1.553992894217888 283.6919247342561 2.800938375591178
0.008 6366.196587966606 1.000268027249282 1.553911890018721 283.6221782170618 2.787934893257128
0.0081 6366.20736980178 1.000267705084016 1.553830861976839 283.5520962884283 2.774922467467926
0.008200000000000001 6366.218203254301 1.000267381788639 1.553749810014923 283.4816788470465 2.761901660747436
0.0083 6366.229088339805 1.000267057367888 1.553668734056193 283.4109257912645 2.748873034650397
0.008400000000000001 6366.240025073985 1.000266731826514 1.553587634024372 283.3398370190993 2.735837149726763
0.008500000000000001 6366.251013472578 1.000266405169274 1.553506509843685 283.2684124282426 2.722794565485014
0.0086 6366.262053551375 1.000266077400937 1.553425361438888 283.1966519160613 2.70974584035449
0.008700000000000001 6366.273145326218 1.000265748526283 1.553344188735221 283.1245553795851 2.696691531645712
0.008800000000000001 6366.284288812995 1.0002654185501 1.553262991658382 283.0521227155303 2.68363219551725
0.0089 6366.295484027649 1.000265087477186 1.553181770134681 282.9793538202824 2.670568386935212
0.009000000000000001 6366.306730986165 1.000264755312349 1.553100524090823 282.9062485899252 2.657500659641367
0.0091 6366.318029704585 1.000264422060405 1.553019253454097 282.8328069201997 2.644429566108675
0.0092 6366.329380198993 1.00026408772618 1.552937958152254 282.7590287065453 2.63135565751178
0.009300000000000001 6366.340782485524 1.000263752314509 1.552856638113569 282.6849138440942 2.618279483689113
0.0094 6366.35223658036 1.000263415830237 1.552775293266853 282.6104622276592 2.60520159310415
0.0095 6366.363742499731 1.000263078278215 1.552693923541344 282.5356737517458 2.592122532810976
0.009600000000000001 6366.375300259915 1.000262739663304 1.55261252886685 282.4605483105519 2.579042848417909
0.0097 6366.386909877236 1.000262399990375 1.552531109173687 282.3850857979681 2.565963084051265
0.0098 6366.398571368063 1.000262059264305 1.552449664392656 282.3092861075896 2.552883782321318
0.009900000000000001 6366.410284748816 1.00026171748998 1.552368194455044 282.233149132698 2.539805484283299
0.01 6366.422050035955 1.000261374672293 1.552286699292728 282.1566747662913 2.526728729406712
0.0101 6366.43386724599 1.000261030816148 1.552205178837998 282.0798629010659 2.513654055536643
0.0102 6366.445736395475 1.000260685926453 1.55212363302369 282.0027134294108 2.500581998857316
0.0103 6366.45765750101 1.000260340008126 1.552042061783161 281.9252262434374 2.487513093861828
0.0104 6366.469630579236 1.00025999306609 1.551960465050273 281.8474012349669 2.474447873314983
0.0105 6366.481655646843 1.00025964510528 1.551878842759366 281.7692382955196 2.461386868216359
0.0106 6366.493732720563 1.000259296130632 1.551797194845323 281.6907373163434 2.448330607770484
0.0107 6366.505861817171 1.000258946147094 1.551715521243526 281.6118981883909 2.43527961934827
0.0108 6366.518042953486 1.000258595159619 1.551633821889834 281.5327208023426 2.422234428456516
0.0109 6366.530276146371 1.000258243173166 1.551552096720667 281.4532050485894 2.409195558700729
0.011 6366.542561412731 1.000257890192702 1.551470345672906 281.3733508172503 2.396163531753994
0.0111 6366.554898769513 1.000257536223198 1.551388568683996 281.2931579981663 2.383138867322122
0.0112 6366.567288233707 1.000257181269636 1.551306765691819 281.2126264809066 2.370122083110947
0.0113 6366.579729822343 1.000256825337 1.551224936634819 281.1317561547684 2.357113694792832
0.0114 6366.592223552497 1.000256468430281 1.55114308145194 281.050546908771 2.344114215972457
0.0115 6366.604769441279 1.000256110554478 1.55106120008259 280.9689986316856 2.331124158158465
0.0116 6366.617367505847 1.000255751714592 1.550979292466739 280.8871112119936 2.318144030723978
0.0117 6366.630017763395 1.000255391915633 1.550897358544867 280.8048845379338 2.305174340881466
0.0118 6366.642720231159 1.000255031162613 1.550815398257927 280.7223184974677 2.292215593644663
0.0119 6366.655474926415 1.000254669460555 1.550733411547376 280.6394129783019 2.279268291800078
0.012 6366.668281866477 1.000254306814481 1.550651398355228 280.5561678679013 2.266332935876783
0.0121 6366.681141068699 1.000253943229422 1.550569358623939 280.4725830534584 2.253410024110004
0.0122 6366.694052550475 1.000253578710412 1.550487292296529 280.3886584219116 2.24050005241233
0.0123 6366.707016329238 1.000253213262491 1.550405199316499 280.3043938599511 2.227603514343261
0.0124 6366.720032422457 1.000252846890702 1.550323079627863 280.2197892540306 2.214720901079886
0.0125 6366.733100847639 1.000252479600096 1.550240933175126 280.1348444903437 2.20185270138236
0.0126 6366.746221622331 1.000252111395723 1.550158759903344 280.0495594548473 2.188999401566864
0.0127 6366.759394764116 1.000251742282643 1.550076559758008 279.9639340332445 2.176161485472498
0.0128 6366.772620290614 1.000251372265916 1.54999433268518 279.8779681110076 2.163339434434675
0.0129 6366.785898219482 1.000251001350607 1.549912078631417 279.7916615733665 2.150533727253392
0.013 6366.799228568412 1.000250629541786 1.549829797543744 279.7050143053206 2.137744840165307
0.0131 6366.812611355134 1.000250256844525 1.549747489369719 279.6180261916269 2.124973246812544
0.0132 6366.826046597414 1.0002498832639 1.549665154057433 279.5306971168119 2.112219418215262
0.0133 6366.83953431305 1.000249508804992 1.549582791555408 279.4430269651774 2.099483822743577
0.0134 6366.853074519879 1.000249133472883 1.54950040181275 279.3550156207888 2.086766926087163
0.0135 6366.86666723577 1.00024875727266 1.54941798477901 279.2666629674926 2.074069191229415
0.0136 6366.88031247863 1.000248380209411 1.549335540404272 279.177968888905 2.061391078417587
0.0137 6366.894010266396 1.000248002288229 1.549253068639118 279.0889332684291 2.048733045137448
0.0138 6366.90776061704 1.000247623514208 1.549170569434652 278.9995559892376 2.036095546083133
0.0139 6366.92156354857 1.000247243892446 1.549088042742427 278.9098369342963 2.023479033133155
0.014 6366.935419079025 1.000246863428042 1.549005488514557 278.8197759863405 2.010883955319999
0.0141 6366.949327226475 1.000246482126099 1.548922906703616 278.7293730279101 1.998310758808302
0.0142 6366.963288009028 1.000246099991721 1.548840297262717 278.6386279413149 1.98575988686338
0.0143 6366.97730144482 1.000245717030014 1.548757660145428 278.5475406086692 1.973231779829928
0.0144 6366.99136755202 1.000245333246087 1.548674995305864 278.4561109118689 1.960726875102795
0.0145 6367.005486348828 1.000244948645049 1.548592302698604 278.3643387326205 1.948245607105374
0.0146 6367.019657853477 1.000244563232012 1.548509582278744 278.2722239523999 1.935788407258584
0.0147 6367.033882084229 1.000244177012091 1.548426834001875 278.1797664525119 1.923355703963826
0.0148 6367.048159059378 1.000243789990398 1.548344057824095 278.0869661140422 1.910947922571768
0.0149 6367.062488797247 1.000243402172051 1.548261253701983 277.9938228178934 1.898565485362643
0.015 6367.076871316192 1.000243013562167 1.548178421592602 277.9003364447493 1.88620881151732
0.0151 6367.091306634596 1.000242624165863 1.548095561453572 277.8065068751283 1.873878317100478
0.0152 6367.105794770871 1.000242233988258 1.548012673242936 277.7123339893359 1.861574415030759
0.0153 6367.120335743461 1.000241843034473 1.547929756919281 277.6178176675061 1.849297515062925
0.0154 6367.134929570835 1.000241451309627 1.54784681244166 277.5229577895719 1.837048023761013
0.0155 6367.149576271495 1.000241058818842 1.547763839769651 277.4277542352833 1.824826344478004
0.0156 6367.164275863966 1.000240665567238 1.547680838863297 277.3322068842184 1.812632877334963
0.0157 6367.179028366807 1.000240271559937 1.547597809683124 277.2363156157547 1.800468019195234
0.0158 6367.193833798599 1.000239876802062 1.547514752190171 277.1400803091041 1.788332163647249
0.0159 6367.208692177954 1.000239481298732 1.547431666345995 277.0435008433009 1.776225700981614
0.016 6367.223603523506 1.000239085055069 1.547348552112591 276.9465770972082 1.764149018170761
0.0161 6367.238567853923 1.000238688076196 1.547265409452456 276.8493089494999 1.752102498846001
0.0162 6367.253585187893 1.000238290367232 1.547182238328588 276.7516962786962 1.740086523281508
0.0163 6367.268655544133 1.000237891933297 1.547099038704489 276.6537389631338 1.728101468370555
0.0164 6367.283778941385 1.000237492779512 1.547015810544108 276.5554368809961 1.716147707609379
0.0165 6367.298955398417 1.000237092910995 1.546932553811874 276.4567899102889 1.704225611074854
0.0166 6367.314184934021 1.000236692332864 1.546849268472761 276.3577979288642 1.692335545408258
0.0167 6367.329467567015 1.000236291050236 1.546765954492184 276.2584608144028 1.680477873794365
0.0168 6367.34480331624 1.000235889068227 1.546682611836032 276.1587784444376 1.668652955945853
0.0169 6367.360192200564 1.000235486391952 1.546599240470716 276.058750696336 1.656861148083086
0.017 6367.375634238874 1.000235083026523 1.546515840363092 275.9583774473175 1.645102802918469
0.0171 6367.391129450086 1.000234678977052 1.546432411480502 275.8576585744421 1.63337826963764
0.0172 6367.406677853136 1.000234274248651 1.54634895379079 275.7565939546161 1.621687893883123
0.0173 6367.422279466983 1.000233868846426 1.546265467262245 275.6551834646096 1.610032017739644
0.0174 6367.437934310609 1.000233462775485 1.546181951863675 275.5534269810395 1.598410979715705
0.0175 6367.453642403021 1.000233056040931 1.546098407564323 275.4513243803625 1.586825114726918
0.0176 6367.469403763245 1.000232648647869 1.546014834333921 275.3488755389056 1.575274754083717
0.0177 6367.485218410329 1.000232240601398 1.545931232142686 275.2460803328598 1.563760225475333
0.0178 6367.501086363344 1.000231831906616 1.545847600961288 275.1429386382623 1.552281852952849
0.0179 6367.517007641381 1.000231422568618 1.54576394076089 275.0394503310202 1.540839956917261
0.018 6367.532982263553 1.000231012592499 1.54568025151311 274.9356152869049 1.52943485410455
0.0181 6367.549010248992 1.000230601983348 1.545596533190063 274.8314333815514 1.518066857571802
0.0182 6367.565091616851 1.000230190746254 1.545512785764282 274.7269044904709 1.50673627668497
0.0183 6367.581226386304 1.0002297788863 1.545429009208823 274.6220284890268 1.495443417103137
0.0184 6367.597414576541 1.000229366408569 1.545345203497158 274.5168052524817 1.484188580770827
0.0185 6367.613656206778 1.00022895331814 1.545261368603257 274.4112346559449 1.472972065899831
0.0186 6367.629951296244 1.000228539620088 1.545177504501551 274.305316574413 1.461794166961589
0.0187 6367.64629986419 1.000228125319486 1.545093611166907 274.1990508827647 1.450655174674823
0.0188 6367.662701929885 1.000227710421403 1.545009688574688 274.0924374557484 1.439555375992957
0.0189 6367.679157512615 1.000227294930903 1.544925736700704 273.9854761680002 1.428495054095009
0.019 6367.695666631686 1.00022687885305 1.544841755521208 273.8781668940381 1.417474488374371
0.0191 6367.71222930642 1.0002264621929 1.54475774501293 273.7705095082678 1.406493954429178
0.0192 6367.728845556157 1.000226044955508 1.544673705153038 273.6625038849824 1.395553724052448
0.0193 6367.745515400254 1.000225627145924 1.544589635919177 273.5541498983511 1.384654065221413
0.0194 6367.762238858084 1.000225208769196 1.544505537289416 273.4454474224543 1.373795242091978
0.0195 6367.77901594904 1.000224789830363 1.544421409242319 273.3363963312426 1.362977514985834
0.0196 6367.795846692525 1.000224370334465 1.544337251756853 273.2269964985893 1.35220114038739
0.0197 6367.812731107964 1.000223950286535 1.544253064812463 273.1172477982321 1.341466370929934
0.0198 6367.829669214795 1.000223529691603 1.544168848389019 273.0071501038318 1.330773455393859
0.0199 6367.846661032471 1.000223108554692 1.544084602466863 272.8967032889367 1.320122638695935
0.02 6367.863706580461 1.000222686880822 1.544000327026765 272.7859072270006 1.309514161884198
0.0201 6367.88080587825 1.00022226467501 1.543916022049953 272.6747617913769 1.298948262130904
0.0202 6367.897958945334 1.000221841942264 1.543831687518066 272.5632668553302 1.288425172727562
0.0203 6367.915165801226 1.000221418687591 1.54374732341321 272.4514222920305 1.277945123078651
