#theta R n z T P_w
0 6365.5 1.000298177299397 1.560324351282931 288.15 5.627070359147186
0.0001 6365.506698014227 1.000297938666179 1.560246940095272 288.1064629075221 5.611314207988358
0.0002 6365.513445317194 1.000297698500624 1.560169508499105 288.0626054382386 5.595481304532862
0.0003 6365.52024192213 1.000297456806911 1.560092056356271 288.0184275061578 5.579572396084408
0.0004 6365.527087842354 1.000297213589241 1.560014583529409 287.9739290246965 5.563588232814964
0.0005 6365.533983091279 1.000296968851836 1.559937089881685 287.9291099066867 5.547529567717055
0.0006000000000000001 6365.5409276824 1.000296722598945 1.559859575277058 287.8839700643983 5.531397156562146
0.0007 6365.547921629305 1.000296474834835 1.559782039580106 287.8385094095164 5.515191757841921
0.0008 6365.554964945669 1.000296225563799 1.559704482656057 287.7927278531523 5.498914132722064
0.0009000000000000001 6365.562057645254 1.000295974790149 1.559626904370865 287.74662530585 5.482565044993743
0.001 6365.56919974191 1.000295722518223 1.559549304591065 287.7002016775858 5.466145261022786
0.0011 6365.576391249572 1.000295468752377 1.559471683183916 287.6534568777805 5.449655549702848
0.0012 6365.583632182265 1.000295213496991 1.559394040017336 287.6063908152754 5.433096682395911
0.0013 6365.590922554097 1.000294956756467 1.559316374959818 287.559003398368 5.41646943289344
0.0014 6365.598262379262 1.000294698535227 1.559238687880677 287.511294534794 5.399774577358619
0.0015 6365.605651672042 1.000294438837715 1.559160978649683 287.4632641317279 5.383012894274691
0.0016 6365.613090446799 1.000294177668397 1.559083247137373 287.4149120958058 5.366185164401386
0.0017 6365.620578717982 1.000293915031759 1.55900549321497 287.3662383331142 5.349292170718763
0.0018 6365.628116500125 1.000293650932309 1.558927716754284 287.3172427491899 5.332334698375073
0.0019 6365.635703807841 1.000293385374575 1.558849917627787 287.2679252490315 5.315313534638543
0.002 6365.643340655833 1.000293118363105 1.558772095708607 287.218285737088 5.298229468840857
0.0021 6365.65102705888 1.00029284990247 1.558694250870508 287.1683241172822 5.281083292332696
0.0022 6365.658763031847 1.000292579997258 1.558616382987971 287.118040292993 5.26387579842491
0.0023 6365.666548589681 1.00029230865208 1.558538491936028 287.0674341670732 5.246607782341721
0.0024 6365.674383747409 1.000292035871565 1.558460577590404 287.0165056418435 5.229280041165697
0.0025 6365.682268520139 1.000291761660365 1.558382639827467 286.9652546190986 5.211893373786624
0.0026 6365.69020292306 1.000291486023146 1.558304678524299 286.9136810001127 5.19444858085026
0.0027 6365.698186971442 1.0002912089646 1.558226693558493 286.8617846856281 5.176946464700948
0.0028 6365.706220680633 1.000290930489435 1.558148684808411 286.8095655758847 5.1593878293381
0.0029 6365.714304066063 1.000290650602377 1.558070652152969 286.7570235705901 5.141773480352626
0.003 6365.722437143239 1.000290369308175 1.557992595471834 286.7041585689439 5.12410422488117
0.0031 6365.730619927747 1.000290086611594 1.557914514645242 286.6509704696426 5.106380871554244
0.0032 6365.738852435252 1.000289802517419 1.557836409554052 286.5974591708631 5.088604230436377
0.0033 6365.747134681495 1.000289517030452 1.557758280079823 286.5436245702793 5.070775112978012
0.0034 6365.755466682296 1.000289230155517 1.557680126104793 286.4894665650748 5.052894331965279
0.0035 6365.763848453552 1.000288941897451 1.55760194751179 286.4349850519128 5.034962701456012
0.0036 6365.772280011235 1.000288652261115 1.557523744184279 286.3801799269717 5.016981036737176
0.0037 6365.780761371395 1.000288361251383 1.557445516006389 286.3250510859333 4.998950154266571
0.0038 6365.789292550156 1.000288068873151 1.557367262862914 286.269598423983 4.980870871618382
0.0039 6365.79787356372 1.000287775131329 1.557288984639309 286.2138218358212 4.962744007432524
0.004 6365.806504428359 1.000287480030846 1.557210681221635 286.1577212156639 4.944570381360003
0.0041 6365.815185160425 1.000287183576649 1.557132352496607 286.1012964572359 4.926350814006351
0.004200000000000001 6365.82391577634 1.000286885773702 1.557053998351626 286.0445474537895 4.908086126882634
0.0043 6365.832696292603 1.000286586626986 1.556975618674667 285.9874740980803 4.889777142343042
0.0044 6365.841526725784 1.000286286141497 1.556897213354454 285.9300762824026 4.871424683541477
0.004500000000000001 6365.850407092526 1.000285984322249 1.556818782280316 285.8723538985781 4.853029574372825
0.0046 6365.859337409546 1.000285681174274 1.556740325342187 285.8143068379494 4.834592639416151
0.0047 6365.868317693632 1.000285376702618 1.556661842430702 285.7559349913921 4.816114703883494
0.0048 6365.877347961643 1.000285070912345 1.55658333343713 285.6972382493208 4.797596593566733
0.0049 6365.886428230509 1.000284763808532 1.556504798253441 285.6382165016888 4.779039134782506
0.005 6365.895558517233 1.000284455396276 1.556426236772159 285.5788696379826 4.760443154315287
0.0051 6365.904738838888 1.000284145680686 1.55634764888658 285.5191975472275 4.741809479364177
0.005200000000000001 6365.913969212614 1.000283834666889 1.556269034490545 285.4592001180112 4.723138937495142
0.0053 6365.923249655623 1.000283522360026 1.55619039347861 285.3988772384486 4.704432356574817
0.0054 6365.932580185196 1.000283208765253 1.556111725745969 285.338228796223 4.685690564728245
0.005500000000000001 6365.941960818684 1.000282893887742 1.556033031188454 285.2772546785508 4.666914390272717
0.0056 6365.951391573504 1.000282577732679 1.555954309702595 285.2159547722225 4.648104661675409
0.0057 6365.960872467142 1.000282260305265 1.555875561185535 285.1543289635796 4.629262207490914
0.0058 6365.97040351715 1.000281941610714 1.555796785535118 285.0923771385259 4.610387856309736
0.0059 6365.97998474115 1.000281621654257 1.55571798264977 285.0300991825278 4.591482436703143
0.006 6365.989616156828 1.000281300441137 1.555639152428716 284.9674949806202 4.572546777169835
0.0061 6365.999297781937 1.000280977976611 1.555560294771678 284.9045644174065 4.553581706080839
0.006200000000000001 6366.009029634299 1.000280654265952 1.555481409579101 284.8413073770583 4.534588051624427
0.0063 6366.018811731796 1.000280329314442 1.555402496752178 284.7777237433278 4.515566641754615
0.0064 6366.028644092378 1.000280003127382 1.55532355619259 284.7138133995412 4.496518304134346
0.006500000000000001 6366.038526734061 1.000279675710081 1.555244587802809 284.6495762286053 4.477443866082286
0.0066 6366.048459674921 1.000279347067865 1.555165591485947 284.5850121130128 4.458344154519611
0.0067 6366.058442933102 1.000279017206071 1.555086567145743 284.5201209348369 4.43921999591335
0.0068 6366.068476526809 1.000278686130048 1.555007514686621 284.4549025757427 4.42007221622504
0.006900000000000001 6366.078560474311 1.00027835384516 1.554928434013658 284.3893569169817 4.400901640854161
0.007 6366.088694793938 1.000278020356781 1.554849325032646 284.3234838394031 4.38170909458688
0.0071 6366.098879504084 1.000277685670298 1.554770187649943 284.2572832234545 4.362495401541334
0.007200000000000001 6366.109114623204 1.000277349791109 1.554691021772651 284.1907549491751 4.343261385111317
0.0073 6366.119400169813 1.000277012724627 1.554611827308534 284.1238988962144 4.324007867916871
0.0074 6366.129736162488 1.000276674476271 1.554532604166001 284.0567149438256 4.304735671748085
0.007500000000000001 6366.140122619868 1.000276335051478 1.554453352254088 283.9892029708598 4.285445617509037
0.0076 6366.150559560649 1.00027599445569 1.554374071482618 283.921362855784 4.266138525168577
0.0077 6366.161047003587 1.000275652694365 1.554294761761934 283.8531944766868 4.246815213707763
0.007800000000000001 6366.171584967499 1.000275309772969 1.554215423003174 283.7846977112548 4.227476501059029
0.007900000000000001 6366.18217347126 1.000274965696979 1.554136055118053 283.7158724368081 4.208123204062233
0.008 6366.192812533803 1.000274620471885 1.554056658019029 283.6467185302826 4.188756138405682
0.0081 6366.203502174118 1.000274274103184 1.553977231619149 283.5772358682356 4.169376118574014
0.008200000000000001 6366.214242411254 1.000273926596384 1.553897775832255 283.5074243268522 4.149983957796146
0.0083 6366.225033264315 1.000273577957004 1.553818290572728 283.4372837819509 4.130580467993327
0.008400000000000001 6366.235874752466 1.000273228190573 1.553738775755665 283.3668141089719 4.1111664597224
0.008500000000000001 6366.246766894923 1.000272877302628 1.553659231296905 283.2960151830006 4.091742742129006
0.0086 6366.257709710961 1.000272525298717 1.553579657112848 283.2248868787559 4.072310122891093
0.008700000000000001 6366.268703219908 1.000272172184397 1.553500053120653 283.1534290705962 4.052869408167479
0.008800000000000001 6366.27974744115 1.000271817965232 1.553420419238103 283.081641632525 4.033421402546524
0.0089 6366.290842394124 1.000271462646797 1.55334075538371 283.0095244381913 4.013966908993328
0.009000000000000001 6366.301988098325 1.000271106234676 1.553261061476566 282.9370773608892 3.994506728797098
0.0091 6366.313184573297 1.000270748734459 1.553181337436543 282.8643002735702 3.975041661521834
0.0092 6366.324431838641 1.000270390151748 1.553101583184137 282.7911930488366 3.955572504952397
0.009300000000000001 6366.335729914009 1.00027003049215 1.553021798640514 282.7177555589423 3.936100055042353
0.0094 6366.347078819105 1.000269669761281 1.55294198372751 282.6439876758158 3.916625105868239
0.0095 6366.358478573688 1.000269307964764 1.552862138367713 282.569889271031 3.897148449569886
0.009600000000000001 6366.369929197564 1.000268945108232 1.552782262484269 282.4954602158367 3.877670876306579
0.0097 6366.381430710592 1.000268581197324 1.552702356001067 282.4207003811506 3.858193174203991
0.0098 6366.392983132684 1.000268216237684 1.552622418842709 282.3456096375534 3.838716129301349
0.009900000000000001 6366.404586483799 1.000267850234966 1.55254245093441 282.2701878553065 3.81924052550495
0.01 6366.416240783947 1.00026748319483 1.552462452202078 282.1944349043464 3.799767144535681
0.0101 6366.427946053188 1.000267115122943 1.552382422572326 282.1183506542783 3.780296765876811
0.0102 6366.43970231163 1.000266746024976 1.552302361972393 282.041934974406 3.760830166731051
0.0103 6366.45150957943 1.000266375906611 1.552222270330267 281.9651877337081 3.741368121964161
0.0104 6366.463367876791 1.000266004773531 1.552142147574569 281.888108800856 3.721911404059386
0.0105 6366.475277223968 1.000265632631428 1.552061993634598 281.8106980442075 3.702460783066061
0.0106 6366.48723764126 1.000265259485999 1.551981808440366 281.7329553318131 3.683017026551449
0.0107 6366.499249149013 1.000264885342947 1.551901591922514 281.6548805314159 3.663580899551306
0.0108 6366.51131176762 1.00026451020798 1.551821344012386 281.5764735104693 3.644153164525076
0.0109 6366.523425517522 1.00026413408681 1.551741064642028 281.4977341361076 3.624734581299583
0.011 6366.535590419201 1.000263756985156 1.551660753744123 281.418662275193 3.605325907031991
0.0111 6366.547806493188 1.00026337890874 1.551580411252075 281.3392577942803 3.585927896152529
0.0112 6366.560073760056 1.000262999863291 1.551500037099935 281.2595205596348 3.566541300320628
0.0113 6366.572392240424 1.000262619854539 1.551419631222458 281.1794504372436 3.54716686837978
0.0114 6366.584761954955 1.000262238888222 1.551339193555066 281.0990472927928 3.527805346304054
0.0115 6366.597182924354 1.00026185697008 1.551258724033838 281.0183109917019 3.508457477159201
0.0116 6366.609655169368 1.000261474105856 1.551178222595586 280.9372413991072 3.489124001051119
0.0117 6366.622178710791 1.000261090301298 1.551097689177745 280.8558383798608 3.469805655078936
0.0118 6366.634753569454 1.000260705562159 1.551017123718462 280.7741017985489 3.450503173292555
0.0119 6366.647379766233 1.000260319894192 1.550936526156557 280.692031519486 3.431217286644828
0.012 6366.660057322043 1.000259933303156 1.550855896431536 280.6096274067203 3.411948722946822
0.0121 6366.672786257842 1.000259545794811 1.550775234483562 280.526889324028 3.392698206820608
0.0122 6366.685566594626 1.000259157374921 1.550694540253492 280.4438171349315 3.373466459657856
0.0123 6366.698398353434 1.000258768049253 1.550613813682846 280.3604107026807 3.354254199570463
0.0124 6366.711281555341 1.000258377823575 1.550533054713869 280.2766698902836 3.335062141352438
0.0125 6366.724216221463 1.000257986703657 1.550452263289428 280.1925945604879 3.315890996431138
0.0126 6366.737202372956 1.000257594695275 1.550371439353053 280.108184575787 3.296741472824305
0.0127 6366.750240031011 1.0002572018042 1.550290582849055 280.0234397984262 3.277614275097386
0.0128 6366.763329216858 1.000256808036212 1.550209693722287 279.9383600904201 3.258510104323795
0.0129 6366.776469951768 1.000256413397086 1.550128771918395 279.8529453135055 3.239429658030896
0.013 6366.789662257043 1.000256017892604 1.550047817383622 279.7671953292182 3.220373630174175
0.0131 6366.802906154026 1.000255621528546 1.549966830064926 279.6811099988339 3.201342711081239
0.0132 6366.816201664093 1.000255224310693 1.549885809909901 279.5946891833977 3.182337587416019
0.0133 6366.829548808659 1.000254826244828 1.549804756866866 279.5079327437182 3.163358942135395
0.0134 6366.842947609171 1.000254427336734 1.549723670884789 279.4208405403855 3.144407454451335
0.0135 6366.856398087113 1.000254027592194 1.549642551913331 279.3334124337647 3.125483799788176
0.0136 6366.869900264004 1.000253627016992 1.54956139990276 279.2456482839729 3.106588649736499
0.0137 6366.883454161394 1.000253225616913 1.549480214804104 279.1575479509378 3.08772267202521
0.0138 6366.897059800868 1.000252823397739 1.549398996569025 279.0691112943567 3.068886530472245
0.0139 6366.910717204045 1.000252420365254 1.549317745149855 278.9803381737082 3.050080884947164
0.014 6366.924426392577 1.000252016525241 1.54923646049956 278.891228448252 3.031306391331571
0.0141 6366.938187388146 1.000251611883484 1.549155142571853 278.8017819770529 3.012563701484856
0.0142 6366.952000212468 1.000251206445763 1.549073791321045 278.7119986189567 2.993853463200329
0.0143 6366.96586488729 1.000250800217859 1.54899240670219 278.6218782326144 2.975176320171689
0.0144 6366.979781434389 1.000250393205552 1.548910988670933 278.53142067647 2.956532911952431
0.0145 6366.993749875574 1.00024998541462 1.548829537183623 278.4406258087664 2.937923873919362
0.0146 6367.007770232683 1.00024957685084 1.548748052197279 278.3494934875633 2.919349837238879
0.0147 6367.021842527583 1.000249167519987 1.548666533669583 278.2580235707077 2.900811428823974
0.0148 6367.035966782174 1.000248757427834 1.54858498155886 278.166215915869 2.882309271304927
0.0149 6367.050143018381 1.000248346580153 1.548503395824145 278.0740703805217 2.863843982989523
0.015 6367.06437125816 1.000247934982714 1.548421776425082 277.981586821957 2.845416177829704
0.0151 6367.078651523494 1.000247522641281 1.54834012332201 277.8887650972887 2.827026465387366
0.0152 6367.092983836394 1.000247109561622 1.548258436475905 277.7956050634415 2.808675450797082
0.0153 6367.107368218897 1.000246695749495 1.548176715848455 277.7021065771686 2.790363734735088
0.0154 6367.121804693069 1.000246281210661 1.548094961401959 277.6082694950518 2.772091913385148
0.0155 6367.136293281 1.000245865950876 1.54801317309937 277.5140936735014 2.753860578404849
0.0156 6367.150834004808 1.000245449975891 1.547931350904323 277.4195789687504 2.735670316891198
0.0157 6367.165426886636 1.000245033291456 1.547849494781104 277.3247252368664 2.717521711350089
0.0158 6367.180071948653 1.000244615903318 1.547767604694652 277.229532333757 2.699415339665013
0.0159 6367.194769213051 1.000244197817217 1.547685680610551 277.1340001151706 2.681351775065063
0.016 6367.209518702046 1.000243779038893 1.547603722495049 277.0381284367016 2.663331586094491
0.0161 6367.224320437881 1.000243359574079 1.547521730315045 276.9419171537733 2.645355336578284
0.0162 6367.239174442821 1.000242939428506 1.547439704038086 276.8453661216666 2.627423585597074
0.0163 6367.254080739151 1.000242518607899 1.547357643632361 276.7484751955211 2.609536887456864
0.0164 6367.269039349183 1.00024209711798 1.547275549066705 276.6512442303105 2.5916957916549
0.0165 6367.284050295251 1.000241674964465 1.547193420310615 276.5536730808666 2.573900842854761
0.0166 6367.299113599708 1.000241252153067 1.547111257334234 276.4557616018973 2.556152580860697
0.0167 6367.314229284932 1.000240828689491 1.547029060108332 276.3575096479448 2.538451540581709
0.0168 6367.329397373318 1.00024040457944 1.546946828604338 276.2589170734331 2.520798252012197
0.0169 6367.344617887285 1.00023997982861 1.546864562794296 276.1599837326443 2.5031932402002
0.017 6367.359890849272 1.000239554442693 1.546782262650911 276.0607094797305 2.485637025222521
0.0171 6367.375216281736 1.000239128427372 1.546699928147549 275.9610941687137 2.468130122158194
0.0172 6367.390594207154 1.00023870178833 1.546617559258155 275.8611376534976 2.450673041064488
0.0173 6367.406024648024 1.000238274531238 1.546535155957369 275.7608397878442 2.433266286947196
0.0174 6367.421507626861 1.000237846661766 1.546452718220402 275.6602004254031 2.415910359740714
0.0175 6367.437043166198 1.000237418185574 1.546370246023157 275.5592194197114 2.398605754283371
0.0176 6367.452631288586 1.000236989108317 1.546287739342128 275.4578966241883 2.381352960292258
0.0177 6367.468272016596 1.000236559435645 1.546205198154476 275.3562318921284 2.364152462338597
0.0178 6367.48396537281 1.000236129173199 1.546122622437951 275.2542250767323 2.347004739829587
0.0179 6367.499711379834 1.000235698326615 1.546040012170945 275.1518760310759 2.329910266980732
0.018 6367.515510060287 1.00023526690152 1.545957367332463 275.0491846081349 2.31286951279766
0.0181 6367.531361436801 1.000234834903537 1.545874687902173 274.9461506607903 2.295882941055394
0.0182 6367.547265532029 1.000234402338279 1.545791973860292 274.8427740418109 2.278951010274227
0.0183 6367.563222368635 1.000233969211352 1.545709225187742 274.7390546038708 2.262074173701986
0.0184 6367.579231969299 1.000233535528356 1.545626441865976 274.6349921995555 2.245252879294791
0.0185 6367.595294356716 1.000233101294883 1.545543623877138 274.5305866813441 2.228487569694514
0.0186 6367.611409553595 1.000232666516515 1.545460771203921 274.4258379016327 2.21177868221344
0.0187 6367.627577582656 1.000232231198828 1.545377883829701 274.3207457127349 2.195126648815587
0.0188 6367.643798466636 1.000231795347391 1.545294961738379 274.2153099668639 2.178531896095747
0.0189 6367.660072228281 1.000231358967761 1.545212004914557 274.1095305161733 2.161994845268391
0.019 6367.676398890352 1.000230922065491 1.545129013343361 274.0034072127108 2.145515912143114
0.0191 6367.692778475623 1.000230484646123 1.545045987010552 273.896939908453 2.129095507113631
0.0192 6367.709211006875 1.00023004671519 1.544962925902507 273.7901284553112 2.112734035142567
0.0193 6367.725696506905 1.000229608278218 1.544879830006197 273.6829727051144 2.096431895743164
0.0194 6367.742234998519 1.000229169340724 1.544796699309175 273.5754725096261 2.080189482966971
0.0195 6367.758826504532 1.000228729908213 1.544713533799622 273.4676277205393 2.064007185388426
0.0196 6367.775471047772 1.000228289986185 1.544630333466263 273.3594381894817 2.047885386091771
0.0197 6367.792168651075 1.000227849580127 1.544547098298465 273.2509037680101 2.031824462656723
0.0198 6367.808919337287 1.000227408695521 1.544463828286151 273.142024307634 2.015824787149058
0.0199 6367.825723129263 1.000226967337834 1.544380523419857 273.032799659792 1.999886726104708
0.02 6367.842580049865 1.000226525512527 1.544297183690685 272.9232296758754 1.984010640521379
0.0201 6367.859490121968 1.000226083225052 1.54421380909032 272.8133142072105 1.968196885844644
0.0202 6367.876453368447 1.000225640480847 1.544130399611046 272.703053105094 1.952445811962247
0.0203 6367.893469812192 1.000225197285345 1.54404695524571 272.5924462207516 1.936757763187898
