#theta R n z T P_w
0 6365.5 1.000319648070302 1.560324351282931 288.15 10.40155430024176
0.0001 6365.506698014227 1.000319355802972 1.560252023120431 288.1064629075221 10.37242929355424
0.0002 6365.513442081224 1.000319061865362 1.56017966370202 288.0626264720457 10.34317643024547
0.0003 6365.520232221105 1.000318766263096 1.560107272844071 288.0184905628156 10.31379695693611
0.0004 6365.527068454105 1.000318469001821 1.560034850364014 287.9740550483197 10.28429212471435
0.0005 6365.533950800575 1.000318170087218 1.559962396080012 287.9293197962655 10.25466318904673
0.0006000000000000001 6365.540879280984 1.00031786952499 1.55988990981145 287.8842846736042 10.22491140972016
0.0007 6365.547853915918 1.000317567320869 1.559817391378383 287.8389495465298 10.19503805076784
0.0008 6365.55487472608 1.000317263480613 1.559744840601983 287.7933142804799 10.16504438039487
0.0009000000000000001 6365.561941732286 1.00031695801001 1.559672257304238 287.7473787401412 10.13493167090748
0.001 6365.569054955469 1.000316650914869 1.559599641308207 287.7011427894498 10.10470119863806
0.0011 6365.576214416676 1.000316342201031 1.559526992437717 287.6546062916085 10.07435424388149
0.0012 6365.583420137067 1.00031603187436 1.559454310517673 287.6077691090635 10.04389209080413
0.0013 6365.590672137917 1.000315719940746 1.55938159537386 287.5606311035398 10.01331602739105
0.0014 6365.597970440612 1.000315406406105 1.559308846832987 287.5131921360233 9.982627345358361
0.0015 6365.605315066649 1.000315091276381 1.559236064722714 287.465452066779 9.951827340088238
0.0016 6365.612706037641 1.000314774557539 1.559163248871672 287.4174107553325 9.920917310540762
0.0017 6365.620143375307 1.000314456255573 1.559090399109335 287.3690680605063 9.889898559199803
0.0018 6365.627627101479 1.0003141363765 1.559017515266263 287.3204238403895 9.858772391976718
0.0019 6365.635157238095 1.000313814926363 1.558944597173828 287.2714779523798 9.827540118159332
0.002 6365.642733807207 1.000313491911228 1.558871644664384 287.2222302531535 9.79620305031521
0.0021 6365.650356830974 1.000313167337187 1.558798657571263 287.1726805986717 9.764762504217439
0.0022 6365.65802633166 1.000312841210356 1.558725635728658 287.1228288442097 9.733219798785097
0.0023 6365.665742331639 1.000312513536874 1.55865257897183 287.0726748443452 9.701576255997123
0.0024 6365.673504853391 1.000312184322905 1.558579487136854 287.0222184529583 9.669833200813523
0.0025 6365.681313919501 1.000311853574635 1.558506360060816 286.9714595232434 9.637991961103754
0.0026 6365.689169552662 1.000311521298274 1.558433197581768 286.9203979076973 9.606053867560048
0.0027 6365.69707177567 1.000311187500057 1.558359999538657 286.8690334581428 9.574020253632721
0.0028 6365.705020611425 1.00031085218624 1.558286765771409 286.8173660257347 9.541892455454049
0.0029 6365.713016082933 1.000310515363101 1.558213496120896 286.7653954609362 9.509671811743559
0.003 6365.721058213299 1.000310177036942 1.558140190428959 286.7131216135543 9.477359663749921
0.0031 6365.729147025734 1.000309837214088 1.558066848538357 286.6605443327279 9.444957355163137
0.0032 6365.73728254355 1.000309495900885 1.557993470292807 286.607663466922 9.412466232030331
0.0033 6365.745464790161 1.0003091531037 1.557920055537027 286.5544788639512 9.379887642689518
0.0034 6365.753693789079 1.000308808828923 1.557846604116657 286.500990370986 9.34722293769212
0.0035 6365.761969563918 1.000308463082966 1.557773115878275 286.4471978345344 9.31447346971089
0.0036 6365.770292138392 1.00030811587226 1.557699590669456 286.3931011004546 9.281640593465792
0.0037 6365.778661536312 1.000307767203259 1.557626028338741 286.3387000139718 9.248725665653167
0.0038 6365.78707778159 1.000307417082437 1.557552428735616 286.283994419667 9.215730044856777
0.0039 6365.795540898232 1.000307065516289 1.557478791710491 286.2289841614946 9.182655091476555
0.004 6365.804050910344 1.000306712511329 1.557405117114856 286.1736690827646 9.149502167635818
0.0041 6365.812607842126 1.000306358074094 1.557331404801046 286.118049026178 9.116272637120296
0.004200000000000001 6365.821211717878 1.000306002211138 1.557257654622434 286.0621238337916 9.082967865274433
0.0043 6365.82986256199 1.000305644929036 1.557183866433351 286.0058933470649 9.049589218947041
0.0044 6365.838560398949 1.000305286234381 1.557110040089059 285.9493574068309 9.016138066390903
0.004500000000000001 6365.847305253338 1.000304926133788 1.557036175445867 285.8925158533019 8.982615777183494
0.0046 6365.85609714983 1.000304564633889 1.556962272361036 285.8353685261048 8.949023722164869
0.0047 6365.864936113191 1.000304201741334 1.556888330692756 285.7779152642578 8.915363273340487
0.0048 6365.873822168281 1.000303837462794 1.556814350300244 285.7201559061758 8.88163580380143
0.0049 6365.882755340051 1.000303471804957 1.556740331043682 285.662090289671 8.847842687641052
0.005 6365.891735653541 1.000303104774527 1.556666272784253 285.6037182519821 8.813985299888643
0.0051 6365.900763133885 1.00030273637823 1.556592175384067 285.5450396297446 8.780065016408603
0.005200000000000001 6365.909837806303 1.000302366622807 1.556518038706316 285.4860542590326 8.746083213840633
0.0053 6365.918959696104 1.000301995515016 1.556443862615087 285.4267619753231 8.712041269495385
0.0054 6365.928128828689 1.000301623061633 1.556369646975499 285.3671626135196 8.67794056128421
0.005500000000000001 6365.937345229544 1.000301249269451 1.556295391653657 285.3072560079639 8.643782467641861
0.0056 6365.946608924243 1.00030087414528 1.556221096516641 285.2470419924188 8.609568367432226
0.0057 6365.955919938446 1.000300497695945 1.556146761432541 285.1865204001027 8.575299639884346
0.0058 6365.965278297898 1.000300119928287 1.556072386270446 285.1256910636611 8.540977664491308
0.0059 6365.974684028432 1.000299740849166 1.555997970900404 285.0645538151952 8.506603820942667
0.006 6365.984137155962 1.000299360465454 1.555923515193543 285.0031084862447 8.472179489030033
0.0061 6365.99363770649 1.00029897878404 1.555849019021901 284.9413549078175 8.437706048579244
0.006200000000000001 6366.003185706098 1.000298595811829 1.555774482258557 284.8792929103655 8.403184879352576
0.0063 6366.012781180953 1.00029821155574 1.555699904777606 284.8169223238086 8.368617360977446
0.0064 6366.022424157301 1.000297826022706 1.555625286454115 284.7542429775407 8.334004872865043
0.006500000000000001 6366.032114661474 1.000297439219675 1.55555062716415 284.6912547004175 8.299348794119158
0.0066 6366.041852719882 1.00029705115361 1.555475926784889 284.6279573207688 8.264650503458103
0.0067 6366.051638359015 1.000296661831488 1.55540118519437 284.564350666404 8.229911379133306
0.0068 6366.061471605443 1.000296271260298 1.555326402271719 284.5004345646183 8.195132798847833
0.006900000000000001 6366.071352485816 1.000295879447044 1.555251577897075 284.4362088421984 8.160316139674908
0.007 6366.08128102686 1.000295486398743 1.555176711951581 284.3716733254108 8.125462777966808
0.0071 6366.091257255382 1.000295092122425 1.555101804317371 284.3068278400195 8.090574089279849
0.007200000000000001 6366.101281198262 1.00029469662513 1.555026854877638 284.2416722112979 8.055651448296031
0.0073 6366.11135288246 1.000294299913916 1.554951863516577 284.1762062640108 8.020696228728838
0.0074 6366.121472335009 1.000293901995848 1.554876830119371 284.1104298224385 7.985709803251321
0.007500000000000001 6366.13163958302 1.000293502878006 1.554801754572256 284.0443427103704 7.950693543408298
0.0076 6366.141854653675 1.00029310256748 1.554726636762504 283.9779447511113 7.915648819534949
0.0077 6366.152117574231 1.000292701071373 1.554651476578361 283.9112357674989 7.88057700068163
0.007800000000000001 6366.162428372019 1.000292298396797 1.554576273909141 283.8442155818742 7.84547945451383
0.007900000000000001 6366.172787074443 1.000291894550877 1.554501028645155 283.7768840161233 7.81035754724954
0.008 6366.183193708976 1.000291489540748 1.554425740677768 283.7092408916532 7.775212643562472
0.0081 6366.193648303167 1.000291083373555 1.554350409899336 283.6412860294157 7.740046106510134
0.008200000000000001 6366.20415088463 1.000290676056453 1.554275036203287 283.5730192499076 7.704859297449546
0.0083 6366.214701481051 1.000290267596609 1.554199619484047 283.5044403731703 7.669653575953084
0.008400000000000001 6366.225300120188 1.000289858001195 1.554124159637103 283.4355492187782 7.634430299718434
0.008500000000000001 6366.235946829864 1.000289447277398 1.554048656558944 283.3663456058861 7.599190824508857
0.0086 6366.24664163797 1.00028903543241 1.553973110147093 283.2968293531934 7.563936504051127
0.008700000000000001 6366.257384572468 1.000288622473433 1.553897520300149 283.2270002789563 7.528668689957912
0.008800000000000001 6366.268175661383 1.000288208407679 1.553821886917706 283.1568582010112 7.49338873165608
0.0089 6366.279014932807 1.000287793242366 1.553746209900408 283.0864029367571 7.458097976294202
0.009000000000000001 6366.289902414896 1.000287376984722 1.553670489149934 283.0156343031789 7.422797768671044
0.0091 6366.300838135873 1.000286959641983 1.553594724569017 282.9445521168244 7.387489451140498
0.0092 6366.311822124027 1.000286541221389 1.553518916061378 282.8731561938274 7.352174363540329
0.009300000000000001 6366.322854407704 1.000286121730192 1.553443063531881 282.8014463499256 7.316853843117937
0.0094 6366.333935015316 1.000285701175648 1.553367166886336 282.729422400443 7.2815292244387
0.0095 6366.34506397534 1.00028527956502 1.553291226031647 282.6570841602896 7.246201839303422
0.009600000000000001 6366.35624131631 1.000284856905579 1.553215240875709 282.5844314439854 7.210873016677434
0.0097 6366.367467066822 1.000284433204601 1.553139211327545 282.5114640656542 7.175544082605374
0.0098 6366.378741255533 1.000284008469368 1.553063137297131 282.4381818390356 7.140216360134757
0.009900000000000001 6366.390063911159 1.000283582707168 1.552987018695553 282.3645845774671 7.104891169225506
0.01 6366.401435062473 1.000283155925294 1.552910855434941 282.2906720939258 7.06956982668812
0.0101 6366.412854738308 1.000282728131045 1.552834647428421 282.2164442009984 7.034253646087889
0.0102 6366.424322967554 1.000282299331724 1.55275839459024 282.1419007108992 6.998943937672086
0.0103 6366.435839779159 1.000281869534639 1.552682096835621 282.0670414354644 6.963642008286087
0.0104 6366.447405202124 1.000281438747102 1.552605754080896 281.9918661861929 6.928349161311958
0.0105 6366.459019265508 1.00028100697643 1.552529366243408 281.9163747741994 6.893066696565469
0.0106 6366.470681998424 1.000280574229943 1.552452933241552 281.8405670102442 6.857795910229647
0.0107 6366.482393430039 1.000280140514964 1.552376454994796 281.7644427047443 6.822538094780048
0.0108 6366.494153589574 1.00027970583882 1.552299931423661 281.6880016677682 6.787294538902038
0.0109 6366.505962506301 1.000279270208843 1.552223362449686 281.6112437090413 6.752066527413828
0.011 6366.517820209548 1.000278833632363 1.552146747995482 281.5341686379405 6.716855341184394
0.0111 6366.529726728689 1.000278396116716 1.552070087984741 281.4567762635232 6.681662257067855
0.0112 6366.541682093153 1.00027795766924 1.551993382342121 281.3790663945041 6.64648854781378
0.0113 6366.553686332418 1.000277518297274 1.551916630993452 281.3010388392844 6.611335482002046
0.0114 6366.56573947601 1.000277078008159 1.55183983386554 281.2226934059344 6.576204323956491
0.0115 6366.577841553506 1.000276636809237 1.55176299088626 281.1440299022109 6.541096333674943
0.0116 6366.58999259453 1.000276194707852 1.551686101984539 281.0650481355577 6.506012766751508
0.0117 6366.602192628753 1.000275751711348 1.551609167090352 280.985747913105 6.470954874299212
0.0118 6366.614441685893 1.00027530782707 1.551532186134732 280.9061290416934 6.435923902883406
0.0119 6366.626739795716 1.000274863062363 1.551455159049784 280.8261913278442 6.400921094431983
0.012 6366.639086988031 1.000274417424572 1.551378085768681 280.745934577801 6.365947686177197
0.0121 6366.651483292692 1.000273970921042 1.551300966225556 280.6653585974999 6.331004910566667
0.0122 6366.663928739599 1.000273523559119 1.551223800355711 280.5844631926051 6.296093995203123
0.0123 6366.676423358695 1.000273075346145 1.551146588095424 280.5032481684851 6.261216162758791
0.0124 6366.688967179962 1.000272626289463 1.551069329382074 280.4217133302485 6.226372630915686
0.0125 6366.70156023343 1.000272176396415 1.550992024154077 280.3398584827081 6.191564612275783
0.0126 6366.714202549166 1.000271725674341 1.550914672350885 280.2576834304226 6.156793314304483
0.0127 6366.72689415728 1.000271274130578 1.550837273913009 280.1751879776788 6.12205993924917
0.0128 6366.739635087923 1.000270821772463 1.550759828782035 280.0923719284973 6.087365684068311
0.0129 6366.752425371283 1.000270368607329 1.550682336900589 280.0092350866624 6.052711740370742
0.013 6366.765265037587 1.000269914642507 1.550604798212343 279.9257772556865 6.018099294328151
0.0131 6366.778154117102 1.000269459885324 1.550527212662032 279.8419982388394 5.98352952661521
0.0132 6366.79109264013 1.000269004343106 1.550449580195421 279.7578978391547 5.949003612340128
0.0133 6366.804080637014 1.000268548023174 1.550371900759357 279.6734758594115 5.914522720965966
0.0134 6366.817118138128 1.000268090932845 1.550294174301684 279.5887321021704 5.88008801625421
0.0135 6366.830205173885 1.000267633079434 1.550216400771359 279.5036663697496 5.84570065618456
0.0136 6366.843341774732 1.000267174470249 1.550138580118361 279.4182784642425 5.81136179289209
0.0137 6366.856527971149 1.000266715112595 1.5500607122937 279.3325681875298 5.777072572602342
0.0138 6366.869763793651 1.000266255013773 1.549982797249453 279.2465353412675 5.742834135557377
0.0139 6366.883049272785 1.000265794181077 1.549904834938763 279.1601797268989 5.708647615951831
0.014 6366.89638443913 1.000265332621798 1.549826825315776 279.0735011456544 5.674514141864702
0.0141 6366.909769323298 1.000264870343219 1.549748768335677 278.9864993985633 5.640434835196277
0.0142 6366.923203955929 1.000264407352618 1.549670663954779 278.8991742864599 5.606410811603139
0.0143 6366.936688367697 1.000263943657269 1.549592512130326 278.8115256099717 5.572443180426805
0.0144 6366.950222589302 1.000263479264436 1.549514312820692 278.7235531695368 5.538533044634407
0.0145 6366.963806651474 1.00026301418138 1.549436065985241 278.6352567654161 5.504681500757443
0.0146 6366.977440584973 1.000262548415352 1.549357771584404 278.5466361976754 5.470889638819714
0.0147 6366.991124420584 1.000262081973598 1.549279429579653 278.4576912662031 5.437158542279446
0.0148 6367.004858189121 1.000261614863355 1.54920103993348 278.3684217707163 5.403489287967335
0.0149 6367.018641921421 1.000261147091853 1.549122602609429 278.2788275107604 5.36988294602287
0.015 6367.032475648351 1.000260678666316 1.549044117572048 278.1889082857155 5.336340579833459
0.0151 6367.046359400801 1.000260209593956 1.548965584786986 278.098663894796 5.302863245971875
0.0152 6367.060293209684 1.000259739881979 1.548887004220832 278.0080941370569 5.269451994136478
0.0153 6367.074277105938 1.000259269537583 1.548808375841299 277.9171988114052 5.23610786709414
0.0154 6367.088311120523 1.000258798567955 1.548729699617095 277.8259777166003 5.202831900619334
0.0155 6367.102395284423 1.000258326980274 1.548650975517925 277.7344306512535 5.169625123433828
0.0156 6367.116529628643 1.000257854781709 1.548572203514546 277.6425574138228 5.136488557144903
0.0157 6367.130714184208 1.00025738197942 1.548493383578759 277.5503578026477 5.103423216199055
0.0158 6367.144948982163 1.000256908580555 1.548414515683399 277.4578316159376 5.070430107819086
0.0159 6367.159234053576 1.000256434592256 1.548335599802266 277.3649786517543 5.037510231939902
0.016 6367.17356942953 1.00025596002165 1.54825663591022 277.2717987080531 5.004664581165954
0.0161 6367.187955141129 1.000255484875856 1.548177623983138 277.1782915826592 4.971894140706103
0.0162 6367.202391219495 1.00025500916198 1.548098563997928 277.0844570732796 4.939199888321764
0.0163 6367.216877695765 1.000254532887118 1.548019455932503 276.9902949775268 4.906582794279656
0.0164 6367.231414601095 1.000254056058357 1.547940299765742 276.8958050928831 4.874043821284637
0.0165 6367.246001966654 1.000253578682766 1.547861095477625 276.800987216748 4.841583924441915
0.0166 6367.260639823629 1.000253100767409 1.547781843049082 276.7058411464089 4.809204051193277
0.0167 6367.275328203221 1.000252622319333 1.547702542462069 276.6103666790644 4.776905141272331
0.0168 6367.290067136643 1.000252143345574 1.547623193699547 276.5145636118185 4.744688126650244
0.0169 6367.304856655123 1.000251663853156 1.547543796745479 276.4184317416983 4.712553931490134
0.017 6367.319696789903 1.000251183849088 1.547464351584859 276.3219708656305 4.680503472088256
0.0171 6367.334587572233 1.000250703340369 1.547384858203628 276.2251807804827 4.648537656837599
0.0172 6367.349529033379 1.000250222333983 1.547305316588739 276.1280612830336 4.616657386168488
0.0173 6367.364521204616 1.000249740836899 1.547225726728198 276.0306121699972 4.584863552507585
0.0174 6367.379564117226 1.000249258856075 1.547146088610934 275.9328332380281 4.553157040231586
0.0175 6367.394657802506 1.000248776398451 1.547066402226903 275.8347242837102 4.521538725615915
0.0176 6367.409802291758 1.000248293470956 1.546986667567028 275.736285103574 4.490009476793721
0.0177 6367.424997616294 1.000247810080503 1.546906884623246 275.637515494091 4.458570153707916
0.0178 6367.440243807434 1.000247326233991 1.546827053388465 275.5384152516793 4.427221608067769
0.0179 6367.455540896502 1.000246841938303 1.546747173856554 275.4389841727337 4.395964683313598
0.018 6367.470888914833 1.000246357200308 1.546667246022408 275.3392220535837 4.364800214559788
0.0181 6367.486287893765 1.000245872026856 1.546587269881869 275.2391286905294 4.333729028562846
0.0182 6367.501737864641 1.000245386424786 1.54650724543172 275.1387038798351 4.302751943677098
0.0183 6367.517238858809 1.000244900400918 1.546427172669793 275.037947417742 4.27186976981664
0.0184 6367.532790907621 1.000244413962057 1.546347051594816 274.9368591004612 4.241083308412569
0.0185 6367.548394042435 1.000243927114992 1.546266882206522 274.8354387241747 4.210393352372844
0.0186 6367.564048294606 1.000243439866493 1.54618666450561 274.7336860850581 4.179800686050034
0.0187 6367.579753695496 1.000242952223315 1.546106398493701 274.6316009792757 4.149306085200791
0.0188 6367.595510276466 1.000242464192197 1.546026084173415 274.5291832029737 4.118910316946194
0.0189 6367.611318068879 1.000241975779858 1.545945721548304 274.4264325522867 4.088614139736445
0.019 6367.627177104098 1.000241486993002 1.545865310622871 274.3233488233608 4.058418303321492
0.0191 6367.643087413487 1.000240997838314 1.545784851402578 274.2199318123365 4.028323548710189
0.0192 6367.659049028406 1.00024050832246 1.545704343893828 274.1161813153602 3.998330608139003
0.0193 6367.675061980216 1.000240018452091 1.545623788103947 274.0120971285959 3.968440205041419
0.0194 6367.691126300277 1.000239528233837 1.545543184041236 273.9076790482017 3.938653054007938
0.0195 6367.707242019942 1.000239037674309 1.545462531714907 273.8029268703771 3.908969860767234
0.0196 6367.723409170565 1.000238546780102 1.545381831135118 273.6978403913275 3.879391322144385
0.0197 6367.739627783493 1.00023805555779 1.545301082312934 273.592419407294 3.849918126038469
0.0198 6367.755897890072 1.000237564013928 1.545220285260345 273.486663714535 3.820550951387587
0.0199 6367.772219521639 1.000237072155053 1.545139439990301 273.3805731093447 3.791290468144688
0.02 6367.788592709529 1.00023657998768 1.545058546516637 273.2741473880586 3.762137337250813
0.0201 6367.805017485069 1.000236087518307 1.544977604854118 273.1673863470536 3.733092210607542
0.0202 6367.821493879578 1.00023559475341 1.544896615018404 273.060289782742 3.704155731048696
0.0203 6367.838021924371 1.000235101699445 1.544815577026086 272.9528574915893 3.675328532319307
