#theta R n z T P_w
0 6365.5 1.000279006968232 1.560324351282931 288.15 1.364138268884166
0.0001 6365.506698014227 1.000278816222615 1.560242403564749 288.1064629075221 1.360318595875965
0.0002 6365.513448205254 1.000278624111509 1.560160445094163 288.0625866658519 1.356478675383957
0.0003 6365.52025058018 1.000278430637427 1.560078475783071 288.0183712288307 1.352618704346629
0.0004 6365.527105146167 1.000278235802898 1.559996495543719 287.9738165499156 1.348738880511578
0.0005 6365.534011910431 1.000278039610465 1.559914504288759 287.9289225821971 1.344839402422525
0.0006000000000000001 6365.54097088025 1.00027784206269 1.559832501931199 287.8836892783755 1.340920469402688
0.0007 6365.547982062955 1.000277643162151 1.559750488384374 287.8381165907907 1.336982281542711
0.0008 6365.555045465939 1.00027744291144 1.559668463561958 287.7922044713981 1.333025039683937
0.0009000000000000001 6365.562161096647 1.000277241313168 1.559586427378005 287.7459528717926 1.329048945405714
0.001 6365.569328962584 1.00027703836996 1.559504379746881 287.6993617432025 1.325054201010096
0.0011 6365.576549071311 1.000276834084459 1.559422320583297 287.6524310364779 1.321041009506
0.0012 6365.583821430444 1.000276628459323 1.559340249802316 287.6051607021139 1.317009574596346
0.0013 6365.591146047657 1.000276421497226 1.55925816731928 287.5575506902277 1.312960100661118
0.0014 6365.598522930679 1.000276213200858 1.559176073049883 287.5096009505872 1.308892792744911
0.0015 6365.605952087294 1.000276003572924 1.559093966910196 287.4613114325883 1.304807856539898
0.0016 6365.613433525344 1.000275792616148 1.559011848816489 287.4126820852661 1.300705498371787
0.0017 6365.620967252723 1.000275580333265 1.558929718685478 287.3637128573008 1.296585925185223
0.0018 6365.628553277383 1.00027536672703 1.558847576434142 287.3144036970124 1.292449344528142
0.0019 6365.636191607329 1.000275151800211 1.558765421979752 287.2647545523599 1.288295964536609
0.002 6365.643882250622 1.000274935555593 1.558683255239883 287.2147653709538 1.284125993920588
0.0021 6365.651625215377 1.000274717995975 1.558601076132478 287.1644361000498 1.279939641948196
0.0022 6365.659420509764 1.000274499124173 1.558518884575778 287.1137666865369 1.275737118429443
0.0023 6365.667268142004 1.000274278943019 1.558436680488236 287.0627570769733 1.271518633703861
0.0024 6365.675168120378 1.000274057455357 1.5583544637887 287.0114072175446 1.267284398621722
0.0025 6365.683120453215 1.000273834664051 1.558272234396285 286.9597170541055 1.263034624532082
0.0026 6365.691125148901 1.000273610571975 1.558189992230429 286.9076865321439 1.258769523264448
0.0027 6365.699182215873 1.000273385182023 1.558107737210844 286.8553155968228 1.25448930711674
0.0028 6365.707291662625 1.000273158497101 1.558025469257513 286.8026041929387 1.250194188836435
0.0029 6365.715453497698 1.000272930520131 1.557943188290773 286.7495522649627 1.245884381608456
0.003 6365.723667729691 1.000272701254051 1.557860894231206 286.6961597570056 1.241560099036767
0.0031 6365.731934367256 1.000272470701812 1.557778586999676 286.642426612835 1.237221555130289
0.0032 6365.740253419092 1.000272238866381 1.557696266517406 286.5883527758996 1.232868964289241
0.0033 6365.748624893957 1.000272005750739 1.557613932705834 286.5339381892812 1.228502541285742
0.0034 6365.757048800655 1.000271771357883 1.557531585486721 286.4791827957428 1.22412250125203
0.0035 6365.765525148046 1.000271535690825 1.557449224782079 286.4240865376981 1.21972905966246
0.0036 6365.774053945041 1.000271298752589 1.557366850514244 286.3686493572303 1.215322432319297
0.0037 6365.782635200603 1.000271060546215 1.55728446260586 286.3128711960793 1.210902835336128
0.0038 6365.791268923744 1.000270821074759 1.557202060979746 286.2567519956659 1.206470485124068
0.0039 6365.799955123528 1.000270580341289 1.557119645559125 286.2002916970681 1.202025598374218
0.004 6365.808693809072 1.000270338348889 1.557037216267449 286.1434902410327 1.197568392042909
0.0041 6365.817484989543 1.000270095100656 1.556954773028395 286.0863475679697 1.193099083335551
0.004200000000000001 6365.826328674157 1.000269850599702 1.556872315766027 286.0288636179815 1.188617889693234
0.0043 6365.835224872182 1.000269604849154 1.556789844404618 285.971038330816 1.18412502877332
0.0044 6365.844173592937 1.00026935785215 1.556707358868714 285.9128716459076 1.179620718436965
0.004500000000000001 6365.853174845791 1.000269109611846 1.556624859083178 285.8543635023597 1.175105176732004
0.0046 6365.86222864016 1.00026886013141 1.556542344973123 285.7955138389624 1.170578621878605
0.0047 6365.871334985513 1.000268609414022 1.556459816463976 285.736322594163 1.166041272251257
0.0048 6365.880493891369 1.00026835746288 1.556377273481334 285.6767897061012 1.161493346365779
0.0049 6365.889705367294 1.000268104281192 1.556294715951224 285.6169151125918 1.156935062862225
0.005 6365.898969422904 1.000267849872182 1.556212143799789 285.5566987511241 1.152366640489163
0.0051 6365.908286067865 1.000267594239087 1.55612955695359 285.4961405588805 1.147788298089302
0.005200000000000001 6365.917655311891 1.000267337385156 1.556046955339349 285.4352404727059 1.14320025458154
0.0053 6365.927077164747 1.000267079313655 1.555964338884137 285.3739984291441 1.138602728947935
0.0054 6365.936551636243 1.000266820027859 1.555881707515238 285.3124143644194 1.133995940216661
0.005500000000000001 6365.94607873624 1.000266559531059 1.555799061160239 285.250488214437 1.12938010744632
0.0056 6365.955658474649 1.00026629782656 1.555716399746991 285.188219914783 1.124755449710267
0.0057 6365.965290861423 1.000266034917679 1.555633723203621 285.1256094007475 1.120122186082693
0.0058 6365.974975906569 1.000265770807744 1.555551031458546 285.0626566073018 1.11548053562121
0.0059 6365.984713620139 1.000265505500101 1.555468324440413 284.9993614690978 1.110830717351213
0.006 6365.994504012232 1.000265238998104 1.55538560207816 284.9357239204918 1.106172950251996
0.0061 6366.004347092996 1.000264971305123 1.55530286430103 284.8717438955267 1.101507453239836
0.006200000000000001 6366.014242872626 1.00026470242454 1.555220111038473 284.8074213279323 1.096834445152408
0.0063 6366.024191361363 1.00026443235975 1.555137342220224 284.7427561511425 1.092154144734501
0.0064 6366.034192569496 1.000264161114161 1.555054557776294 284.6777482982783 1.087466770621185
0.006500000000000001 6366.04424650736 1.000263888691191 1.554971757637019 284.6123977021588 1.082772541323138
0.0066 6366.054353185338 1.000263615094275 1.554888941732934 284.5467042953018 1.078071675211144
0.0067 6366.064512613857 1.000263340326856 1.554806109994863 284.4806680099294 1.073364390501035
0.0068 6366.074724803392 1.000263064392394 1.55472326235387 284.4142887779507 1.068650905236973
0.006900000000000001 6366.084989764464 1.000262787294357 1.554640398741374 284.3475665309846 1.063931437277717
0.007 6366.095307507639 1.000262509036228 1.554557519088983 284.280501200349 1.059206204280387
0.0071 6366.105678043527 1.000262229621501 1.554474623328604 284.2130927170718 1.054475423685933
0.007200000000000001 6366.11610138279 1.000261949053683 1.554391711392391 284.1453410118678 1.049739312702146
0.0073 6366.126577536128 1.000261667336292 1.554308783212784 284.0772460151678 1.04499808829044
0.0074 6366.13710651429 1.00026138447286 1.554225838722531 284.0088076571132 1.040251967150165
0.007500000000000001 6366.147688328071 1.000261100466928 1.554142877854556 283.9400258675377 1.035501165702159
0.0076 6366.158322988308 1.000260815322051 1.554059900542121 283.8709005759973 1.030745900075602
0.0077 6366.169010505884 1.000260529041795 1.55397690671877 283.8014317117526 1.025986386091646
0.007800000000000001 6366.179750891726 1.000260241629738 1.553893896318224 283.73161920378 1.021222839249112
0.007900000000000001 6366.190544156807 1.00025995308947 1.553810869274586 283.6614629807549 1.016455474708215
0.008 6366.201390312142 1.00025966342459 1.55372782552218 283.5909629710744 1.01168450727716
0.0081 6366.212289368793 1.000259372638713 1.553644764995521 283.5201191028463 1.006910151396348
0.008200000000000001 6366.223241337862 1.000259080735462 1.553561687629553 283.4489313039002 1.002132621124248
0.0083 6366.234246230497 1.000258787718471 1.553478593359339 283.3773995017704 0.9973521301213133
0.008400000000000001 6366.245304057889 1.000258493591389 1.553395482120291 283.3055236237191 0.9925688916367289
0.008500000000000001 6366.256414831274 1.000258198357871 1.553312353848082 283.2333035967189 0.9877831184924412
0.0086 6366.267578561929 1.000257902021588 1.553229208478618 283.1607393474645 0.9829950230692072
0.008700000000000001 6366.278795261174 1.000257604586218 1.553146045948121 283.087830802367 0.9782048172915188
0.008800000000000001 6366.290064940375 1.000257306055452 1.553062866193047 283.0145778875652 0.9734127126137514
0.0089 6366.301387610935 1.000257006432993 1.552979669150139 282.9409805289205 0.968618920005194
0.009000000000000001 6366.312763284306 1.000256705722553 1.552896454756369 282.8670386520101 0.963823649935147
0.0091 6366.324191971978 1.000256403927854 1.552813222949051 282.7927521821456 0.9590271123596166
0.0092 6366.335673685485 1.000256101052631 1.552729973665696 282.7181210443485 0.9542295167053791
0.009300000000000001 6366.347208436402 1.000255797100628 1.5526467068441 282.6431451633865 0.949431071857929
0.0094 6366.358796236346 1.0002554920756 1.552563422422427 282.5678244637492 0.9446319861456655
0.0095 6366.370437096976 1.000255185981312 1.552480120338941 282.4921588696542 0.9398324673260592
0.009600000000000001 6366.382131029993 1.000254878821541 1.552396800532286 282.4161483050474 0.9350327225714991
0.0097 6366.393878047138 1.000254570600072 1.552313462941346 282.3397926936026 0.9302329584552079
0.0098 6366.405678160194 1.000254261320701 1.552230107505285 282.2630919587394 0.9254333809383324
0.009900000000000001 6366.417531380986 1.000253950987235 1.55214673416353 282.1860460235879 0.9206341953537671
0.01 6366.429437721379 1.00025363960349 1.552063342855766 282.1086548110355 0.9158356063952283
0.0101 6366.441397193277 1.000253327173293 1.551979933521954 282.030918243698 0.9110378181015889
0.0102 6366.453409808627 1.00025301370048 1.551896506102344 281.9528362439249 0.9062410338435084
0.0103 6366.465475579415 1.000252699188896 1.551813060537428 281.8744087337999 0.9014454563097701
0.0104 6366.477594517669 1.000252383642399 1.551729596767949 281.7956356351523 0.89665128749441
0.0105 6366.489766635454 1.000252067064852 1.551646114735022 281.7165168695514 0.8918587286828309
0.0106 6366.501991944876 1.000251749460133 1.551562614379876 281.6370523583063 0.8870679804383617
0.0107 6366.514270458082 1.000251430832124 1.551479095644158 281.5572420224661 0.8822792425888955
0.0108 6366.526602187257 1.000251111184721 1.551395558469685 281.4770857828315 0.8774927142143134
0.0109 6366.538987144626 1.000250790521826 1.551312002798578 281.3965835599314 0.8727085936318669
0.011 6366.551425342453 1.000250468847353 1.551228428573254 281.3157352740581 0.8679270783851724
0.0111 6366.563916793039 1.000250146165224 1.55114483573633 281.2345408452437 0.8631483652297582
0.0112 6366.576461508729 1.00024982247937 1.551061224230797 281.1530001932605 0.8583726501201199
0.0113 6366.589059501901 1.00024949779373 1.550977593999828 281.071113237644 0.8536001281982368
0.0114 6366.601710784975 1.000249172112256 1.550893944986865 280.9888798976639 0.8488309937790587
0.0115 6366.614415370407 1.000248845438903 1.550810277135689 280.9063000923533 0.8440654403395353
0.0116 6366.627173270695 1.000248517777639 1.550726590390307 280.8233737404852 0.8393036605046384
0.0117 6366.639984498369 1.000248189132441 1.550642884694982 280.7401007606021 0.8345458460365475
0.0118 6366.652849066001 1.000247859507292 1.550559159994292 280.6564810709923 0.8297921878208621
0.0119 6366.665766986201 1.000247528906185 1.550475416233034 280.5725145896957 0.825042875854615
0.012 6366.678738271614 1.000247197333123 1.550391653356325 280.48820123451 0.8202980992343718
0.0121 6366.691762934924 1.000246864792114 1.55030787130951 280.4035409229963 0.8155580461444151
0.0122 6366.70484098885 1.000246531287178 1.550224070038257 280.3185335724733 0.8108229038443604
0.0123 6366.717972446151 1.000246196822341 1.550140249488438 280.2331791000173 0.806092858657207
0.0124 6366.73115731962 1.000245861401638 1.550056409606257 280.1474774224683 0.8013680959578134
0.0125 6366.744395622089 1.000245525029112 1.549972550338136 280.0614284564239 0.7966488001608172
0.0126 6366.757687366425 1.000245187708815 1.549888671630809 279.975032118239 0.7919351547089879
0.0127 6366.771032565531 1.000244849444804 1.549804773431251 279.8882883240502 0.7872273420629642
0.0128 6366.784431232347 1.000244510241148 1.549720855686745 279.8011969897456 0.7825255436881882
0.0129 6366.797883379849 1.000244170101922 1.54963691834479 279.7137580309826 0.7778299400445289
0.013 6366.811389021047 1.000243829031207 1.549552961353215 279.6259713631943 0.7731407105753537
0.0131 6366.82494816899 1.000243487033095 1.549468984660081 279.5378369015651 0.7684580336951276
0.0132 6366.838560836759 1.000243144111683 1.549384988213716 279.449354561067 0.7637820867802788
0.0133 6366.852227037471 1.000242800271077 1.549300971962747 279.3605242564353 0.7591130461570141
0.0134 6366.865946784281 1.00024245551539 1.549216935856058 279.2713459021746 0.7544510870908255
0.0135 6366.879720090375 1.000242109848742 1.549132879842804 279.1818194125652 0.7497963837760987
0.0136 6366.893546968975 1.000241763275261 1.549048803872406 279.0919447016626 0.745149109325518
0.0137 6366.907427433338 1.000241415799082 1.548964707894547 279.0017216833033 0.7405094357598898
0.0138 6366.921361496757 1.000241067424347 1.548880591859209 278.911150271082 0.7358775339965601
0.0139 6366.935349172556 1.000240718155205 1.548796455716622 278.8202303783859 0.7312535738409891
0.014 6366.949390474095 1.000240367995813 1.548712299417299 278.7289619183838 0.7266377239759938
0.0141 6366.963485414767 1.000240016950332 1.548628122912029 278.6373448040139 0.7220301519511293
0.0142 6366.977634008001 1.000239665022934 1.548543926151813 278.5453789479956 0.7174310241733882
0.0143 6366.991836267257 1.000239312217795 1.548459709088016 278.4530642628296 0.7128405058974111
0.0144 6367.006092206028 1.000238958539098 1.548375471672202 278.3604006608156 0.7082587612166931
0.0145 6367.020401837844 1.000238603991034 1.548291213856247 278.2673880540168 0.7036859530522727
0.0146 6367.034765176263 1.0002382485778 1.548206935592261 278.1740263542896 0.6991222431447714
0.0147 6367.04918223488 1.000237892303598 1.548122636832645 278.0803154732774 0.6945677920447886
0.0148 6367.063653027321 1.000237535172637 1.548038317530086 277.986255322411 0.6900227591037132
0.0149 6367.078177567244 1.000237177189135 1.547953977637509 277.8918458129141 0.6854873024649452
0.015 6367.092755868341 1.000236818357312 1.547869617108103 277.7970868557858 0.6809615790541036
0.0151 6367.107387944333 1.000236458681398 1.547785235895383 277.701978361836 0.6764457445719128
0.0152 6367.122073808978 1.000236098165626 1.547700833953077 277.6065202416443 0.6719399534835359
0.0153 6367.136813476061 1.000235736814237 1.547616411235212 277.5107124056007 0.6674443590119804
0.0154 6367.151606959403 1.000235374631478 1.547531967696056 277.4145547638826 0.6629591131285373
0.0155 6367.166454272853 1.0002350116216 1.547447503290182 277.3180472264547 0.6584843665444824
0.0156 6367.181355430293 1.000234647788862 1.547363017972407 277.2211897030983 0.6540202687042665
0.0157 6367.196310445635 1.000234283137527 1.547278511697818 277.1239821033699 0.6495669677755477
0.0158 6367.211319332825 1.000233917671866 1.547193984421791 277.0264243366372 0.6451246106429119
0.0159 6367.226382105837 1.000233551396152 1.547109436099959 276.9285163120607 0.6406933428992674
0.016 6367.241498778676 1.000233184314668 1.547024866688205 276.8302579386058 0.6362733088387263
0.0161 6367.256669365379 1.000232816431698 1.546940276142708 276.7316491250371 0.6318646514488118
0.0162 6367.271893880012 1.000232447751534 1.546855664419892 276.6326897799239 0.6274675124033311
0.0163 6367.287172336672 1.000232078278473 1.546771031476498 276.5333798116347 0.623082032054856
0.0164 6367.302504749484 1.000231708016817 1.546686377269447 276.4337191283547 0.6187083494283809
0.0165 6367.317891132606 1.000231336970872 1.546601701756018 276.333707638062 0.6143466022132924
0.0166 6367.333331500225 1.000230965144951 1.546517004893695 276.2333452485399 0.609996926757044
0.0167 6367.348825866555 1.000230592543371 1.54643228664026 276.132631867394 0.6056594580592053
0.0168 6367.364374245841 1.000230219170454 1.546347546953773 276.0315674020352 0.6013343297641077
0.0169 6367.379976652358 1.000229845030526 1.546262785792508 275.9301517596731 0.5970216741541579
0.017 6367.39563310041 1.000229470127921 1.546178003115063 275.8283848473342 0.5927216221442972
0.0171 6367.411343604328 1.000229094466973 1.546093198880274 275.7262665718675 0.5884343032760786
0.0172 6367.427108178475 1.000228718052024 1.546008373047251 275.6237968399154 0.5841598457103986
0.0173 6367.442926837237 1.00022834088742 1.545923525575379 275.5209755579602 0.5798983762235936
0.0174 6367.458799595034 1.000227962977511 1.545838656424265 275.4178026322778 0.5756500201997209
0.0175 6367.474726466311 1.00022758432665 1.545753765553856 275.3142779689782 0.5714149016266717
0.0176 6367.490707465541 1.000227204939198 1.545668852924292 275.2104014739824 0.5671931430897289
0.0177 6367.506742607228 1.000226824819517 1.54558391849601 275.1061730530163 0.5629848657660175
0.0178 6367.522831905901 1.000226443971975 1.545498962229731 275.0015926116461 0.5587901894207643
0.0179 6367.538975376115 1.000226062400943 1.545413984086417 274.8966600552548 0.5546092324012971
0.018 6367.555173032456 1.000225680110797 1.545328984027274 274.7913752890362 0.550442111631925
0.0181 6367.571424889536 1.000225297105916 1.54524396201382 274.6857382180186 0.5462889426101331
0.0182 6367.587730961992 1.000224913390684 1.545158918007799 274.579748747053 0.5421498394015036
0.0183 6367.604091264489 1.000224528969488 1.545073851971233 274.4734067808189 0.5380249146354872
0.0184 6367.620505811722 1.000224143846719 1.544988763866413 274.3667122238065 0.5339142795004037
0.0185 6367.636974618408 1.000223758026773 1.544903653655873 274.2596649803467 0.5298180437404214
0.0186 6367.653497699292 1.000223371514048 1.544818521302428 274.1522649546044 0.525736315651292
0.0187 6367.670075069144 1.000222984312946 1.544733366769156 274.0445120505618 0.521669202075799
0.0188 6367.686706742764 1.000222596427873 1.54464819001938 273.9364061720352 0.517616808400706
0.0189 6367.703392734973 1.000222207863238 1.544562991016706 273.8279472226753 0.513579238553166
0.019 6367.72013306062 1.000221818623453 1.544477769724966 273.7191351059677 0.5095565949972812
0.0191 6367.736927734582 1.000221428712934 1.5443925261083 273.6099697252201 0.5055489787303774
0.0192 6367.753776771755 1.0002210381361 1.544307260131069 273.5004509835929 0.5015564892809479
0.0193 6367.770680187065 1.000220646897374 1.54422197175793 273.3905787840748 0.4975792247047831
0.0194 6367.787637995465 1.00022025500118 1.544136660953764 273.2803530294772 0.4936172815819201
0.0195 6367.804650211928 1.000219862451947 1.54405132768373 273.1697736224695 0.4896707550152219
0.0196 6367.821716851453 1.000219469254107 1.543965971913233 273.0588404655558 0.4857397386269653
0.0197 6367.838837929065 1.000219075412094 1.543880593607966 272.9475534610746 0.4818243245564424
0.0198 6367.856013459814 1.000218680930344 1.543795192733857 272.8359125112105 0.4779246034581244
0.0199 6367.873243458771 1.000218285813298 1.543709769257079 272.7239175179888 0.4740406644993445
0.02 6367.890527941035 1.000217890065399 1.543624323144092 272.6115683832749 0.4701725953583411
0.0201 6367.907866921725 1.00021749369109 1.54353885436162 272.4988650087865 0.4663204822228558
0.0202 6367.925260415988 1.000217096694822 1.543453362876584 272.385807296076 0.4624844097878628
