#theta R n z T P_w
0 6365.5 1.000274406088753 1.560324351282931 288.15 0.3410345672210415
0.0001 6365.506698014227 1.000274226836159 1.560241315061755 288.1064629075221 0.3400796489689913
0.0002 6365.513448898218 1.000274046264251 1.56015827040127 288.0625821615798 0.339119570418122
0.0003 6365.520252657608 1.000273864375087 1.560075217226669 288.0183577255501 0.3381543817491687
0.0004 6365.52710929808 1.000273681170741 1.559992155463597 287.9737895624788 0.3371841333524305
0.0005 6365.534018825368 1.000273496653302 1.559909085037712 287.9288776351103 0.3362088758246284
0.0006000000000000001 6365.540981245254 1.000273310824871 1.559826005875168 287.883621905852 0.3352286599643333
0.0007 6365.547996563569 1.000273123687565 1.559742917902295 287.8380223368039 0.3342435367687935
0.0008 6365.555064786194 1.000272935243517 1.559659821045695 287.7920788897408 0.3332535574297249
0.0009000000000000001 6365.562185919059 1.000272745494871 1.559576715232188 287.7457915261183 0.3322587733295983
0.001 6365.569359968143 1.000272554443789 1.559493600388872 287.6991602070729 0.331259236037789
0.0011 6365.576586939472 1.000272362092445 1.559410476443115 287.6521848934334 0.3302549973069632
0.0012 6365.583866839121 1.000272168443027 1.559327343322501 287.6048655457156 0.3292461090690748
0.0013 6365.591199673212 1.00027197349774 1.559244200954861 287.5572021241218 0.3282326234314741
0.0014 6365.598585447919 1.000271777258801 1.559161049268236 287.5091945885291 0.3272145926727592
0.0015 6365.606024169459 1.000271579728442 1.559077888190965 287.4608428985133 0.3261920692393662
0.0016 6365.613515844099 1.000271380908909 1.558994717651514 287.4121470133545 0.3251651057417697
0.0017 6365.621060478156 1.000271180802462 1.558911537578699 287.3631068919839 0.3241337549494273
0.0018 6365.628658077991 1.000270979411376 1.55882834790142 287.3137224930609 0.3230980697884594
0.0019 6365.636308650012 1.00027077673794 1.558745148548911 287.2639937749199 0.3220581033365733
0.002 6365.644012200678 1.000270572784457 1.558661939450607 287.2139206955934 0.3210139088196003
0.0021 6365.65176873649 1.000270367553243 1.55857872053607 287.1635032128128 0.3199655396075224
0.0022 6365.659578264002 1.000270161046628 1.558495491735195 287.11274128399 0.3189130492101244
0.0023 6365.667440789809 1.00026995326696 1.558412252977962 287.0616348662414 0.3178564912734982
0.0024 6365.675356320557 1.000269744216596 1.558329004194701 287.0101839163821 0.3167959195759227
0.0025 6365.683324862935 1.000269533897909 1.558245745315814 286.9583883909253 0.3157313880238592
0.0026 6365.69134642368 1.000269322313286 1.558162476272 286.9062482460771 0.3146629506478189
0.0027 6365.699421009577 1.000269109465129 1.558079196994092 286.8537634377479 0.3135906615985882
0.0028 6365.707548627454 1.000268895355851 1.557995907413148 286.8009339215467 0.3125145751430821
0.0029 6365.715729284188 1.000268679987881 1.557912607460468 286.7477596527809 0.3114347456603129
0.003 6365.723962986699 1.000268463363663 1.557829297067426 286.6942405864564 0.3103512276373546
0.0031 6365.732249741956 1.000268245485651 1.557745976165748 286.6403766772836 0.3092640756654198
0.0032 6365.740589556971 1.000268026356316 1.557662644687233 286.586167879689 0.3081733444360494
0.0033 6365.748982438801 1.000267805978141 1.557579302563923 286.5316141477919 0.3070790887365815
0.0034 6365.757428394551 1.000267584353624 1.557495949728033 286.4767154354157 0.3059813634463343
0.0035 6365.765927431372 1.000267361485275 1.557412586111955 286.4214716960827 0.3048802235324262
0.0036 6365.774479556455 1.00026713737562 1.557329211648259 286.3658828830429 0.3037757240462998
0.0037 6365.783084777042 1.000266912027196 1.557245826269793 286.3099489492273 0.3026679201187107
0.0038 6365.791743100416 1.000266685442555 1.557162429909436 286.2536698472949 0.3015568669565959
0.0039 6365.800454533907 1.000266457624263 1.557079022500376 286.1970455296031 0.3004426198384121
0.004 6365.809219084888 1.000266228574898 1.55699560397588 286.1400759482257 0.2993252341104086
0.0041 6365.818036760778 1.000265998297052 1.556912174269527 286.0827610549408 0.298204765182316
0.004200000000000001 6365.826907569041 1.000265766793331 1.556828733314902 286.0251008012309 0.2970812685232658
0.0043 6365.835831517184 1.000265534066354 1.556745281045949 285.9670951383067 0.29595479965817
0.0044 6365.844808612757 1.000265300118753 1.556661817396641 285.9087440170773 0.2948254141630602
0.004500000000000001 6365.853838863358 1.000265064953174 1.556578342301204 285.8500473881739 0.2936931676614641
0.0046 6365.862922276627 1.000264828572276 1.556494855693986 285.7910052019264 0.2925581158198646
0.0047 6365.872058860246 1.000264590978731 1.556411357509596 285.7316174083984 0.2914203143442988
0.0048 6365.881248621946 1.000264352175225 1.556327847682709 285.6718839573522 0.2902798189755925
0.0049 6365.890491569496 1.000264112164455 1.556244326148264 285.6118047982781 0.2891366854858431
0.005 6365.89978771071 1.000263870949133 1.556160792841346 285.5513798803826 0.287990969674112
0.0051 6365.909137053449 1.000263628531986 1.556077247697139 285.4906091525826 0.2868427273622312
0.005200000000000001 6365.918539605614 1.000263384915749 1.555993690651096 285.4294925635112 0.2856920143908402
0.0053 6365.92799537515 1.000263140103175 1.555910121638769 285.3680300615237 0.2845388866154199
0.0054 6365.937504370046 1.000262894097027 1.555826540595958 285.3062215947033 0.2833833999023299
0.005500000000000001 6365.947066598333 1.000262646900082 1.555742947458519 285.2440671108378 0.2822256101242942
0.0056 6365.956682068087 1.000262398515129 1.555659342162564 285.1815665574371 0.2810655731566691
0.0057 6365.966350787423 1.000262148944972 1.55557572464437 285.118719881751 0.2799033448737064
0.0058 6365.976072764503 1.000261898192426 1.555492094840297 285.0555270307276 0.2787389811437268
0.0059 6365.985848007531 1.000261646260318 1.555408452686969 284.9919879510493 0.2775725378257234
0.006 6365.995676524751 1.000261393151491 1.555324798121126 284.9281025891204 0.2764040707650919
0.0061 6366.005558324451 1.000261138868798 1.555241131079662 284.8638708910674 0.2752336357895861
0.006200000000000001 6366.015493414962 1.000260883415105 1.555157451499683 284.7992928027451 0.2740612887053868
0.0063 6366.025481804657 1.000260626793292 1.555073759318422 284.73436826973 0.2728870852929601
0.0064 6366.03552350195 1.00026036900625 1.554990054473276 284.669097237327 0.2717110813031378
0.006500000000000001 6366.045618515296 1.000260110056884 1.554906336901813 284.603479650575 0.2705333324532026
0.0066 6366.055766853196 1.00025984994811 1.554822606541776 284.5375154542229 0.2693538944224491
0.0067 6366.065968524192 1.000259588682858 1.55473886333105 284.4712045927539 0.2681728228486046
0.0068 6366.076223536863 1.00025932626407 1.554655107207702 284.404547010391 0.2669901733239324
0.006900000000000001 6366.086531899836 1.0002590626947 1.55457133810992 284.3375426510673 0.2658060013907167
0.007 6366.096893621774 1.000258797977715 1.554487555976135 284.270191458468 0.264620362538014
0.0071 6366.107308711386 1.000258532116093 1.554403760744872 284.2024933759884 0.2634333121969473
0.007200000000000001 6366.11777717742 1.000258265112826 1.554319952354807 284.1344483467695 0.262244905737368
0.0073 6366.128299028665 1.000257996970918 1.554236130744829 284.0660563136806 0.2610551984635881
0.0074 6366.138874273952 1.000257727693383 1.554152295853975 283.997317219313 0.2598642456103337
0.007500000000000001 6366.149502922154 1.000257457283251 1.554068447621385 283.9282310059979 0.25867210233912
0.0076 6366.160184982183 1.000257185743562 1.553984585986439 283.8587976158123 0.2574788237344258
0.0077 6366.170920462991 1.000256913077366 1.553900710888669 283.7890169905553 0.2562844647993725
0.007800000000000001 6366.181709373575 1.00025663928773 1.553816822267693 283.7188890717601 0.2550890804520268
0.007900000000000001 6366.192551722969 1.000256364377729 1.553732920063383 283.6484138006998 0.2538927255216116
0.008 6366.203447520249 1.000256088350451 1.5536490042157 283.5775911183813 0.2526954547445259
0.0081 6366.214396774531 1.000255811208996 1.553565074664795 283.5064209655515 0.2514973227605789
0.008200000000000001 6366.225399494969 1.000255532956477 1.553481131351018 283.434903282703 0.2502983841092344
0.0083 6366.236455690762 1.000255253596017 1.553397174214785 283.3630380100448 0.2490986932252753
0.008400000000000001 6366.247565371146 1.000254973130753 1.553313203196749 283.2908250875493 0.2478983044357685
0.008500000000000001 6366.258728545399 1.000254691563832 1.553229218237682 283.2182644549051 0.2466972719554619
0.0086 6366.269945222837 1.000254408898413 1.553145219278546 283.1453560515587 0.2454956498836737
0.008700000000000001 6366.281215412817 1.000254125137667 1.553061206260446 283.0720998166902 0.2442934922001146
0.008800000000000001 6366.292539124735 1.000253840284776 1.552977179124642 282.9984956892257 0.2430908527613121
0.0089 6366.303916368027 1.000253554342936 1.552893137812552 282.9245436078253 0.2418877852966629
0.009000000000000001 6366.315347152168 1.000253267315351 1.552809082265801 282.8502435109066 0.2406843434050777
0.0091 6366.326831486675 1.000252979205239 1.552725012426091 282.7755953366153 0.2394805805507768
0.0092 6366.338369381101 1.000252690015829 1.552640928235358 282.700599022843 0.2382765500598721
0.009300000000000001 6366.34996084504 1.000252399750361 1.552556829635638 282.6252545072388 0.2370723051168636
0.0094 6366.361605888124 1.000252108412086 1.552472716569191 282.5495617271916 0.2358678987606789
0.0095 6366.373304520027 1.000251816004267 1.552388588978364 282.4735206198246 0.2346633838809244
0.009600000000000001 6366.385056750458 1.00025152253018 1.552304446805726 282.3971311220242 0.2334588132147153
0.0097 6366.396862589167 1.000251227993108 1.552220289993977 282.3203931704169 0.2322542393426766
0.0098 6366.408722045942 1.000250932396349 1.552136118485985 282.2433067013748 0.2310497146854346
0.009900000000000001 6366.420635130611 1.00025063574321 1.552051932224767 282.1658716510277 0.2298452915002154
0.01 6366.43260185304 1.000250338037012 1.551967731153479 282.0880879552395 0.2286410218769105
0.0101 6366.444622223133 1.000250039281083 1.551883515215513 282.0099555496375 0.2274369577349885
0.0102 6366.456696250832 1.000249739478765 1.551799284354353 281.9314743695949 0.2262331508196916
0.0103 6366.468823946117 1.00024943863341 1.551715038513648 281.8526443502423 0.225029652698709
0.0104 6366.481005319008 1.000249136748381 1.551630777637225 281.7734654264503 0.2238265147584175
0.0105 6366.493240379563 1.000248833827053 1.551546501669085 281.6939375328415 0.2226237882005968
0.0106 6366.505529137876 1.000248529872809 1.551462210553341 281.6140606038074 0.2214215240392496
0.0107 6366.517871604079 1.000248224889045 1.551377904234341 281.5338345734857 0.2202197730968159
0.0108 6366.530267788344 1.000247918879169 1.551293582656524 281.4532593757657 0.21901858600086
0.0109 6366.542717700878 1.000247611846597 1.551209245764489 281.3723349442943 0.2178180131807761
0.011 6366.555221351928 1.000247303794756 1.551124893503072 281.29106121247 0.2166181048643399
0.0111 6366.567778751776 1.000246994727086 1.551040525817199 281.2094381134551 0.2154189110745447
0.0112 6366.580389910744 1.000246684647035 1.550956142651999 281.1274655801634 0.2142204816261112
0.0113 6366.59305483919 1.000246373558064 1.550871743952692 281.0451435452663 0.2130228661222823
0.0114 6366.605773547507 1.000246061463641 1.550787329664778 280.9624719412049 0.2118261139517243
0.0115 6366.618546046129 1.000245748367248 1.550702899733776 280.8794507001597 0.2106302742848528
0.0116 6366.631372345525 1.000245434272375 1.550618454105501 280.7960797540871 0.2094353960711241
0.0117 6366.644252456201 1.000245119182525 1.550533992725822 280.7123590346949 0.208241528035496
0.0118 6366.657186388699 1.000244803101207 1.550449515540837 280.6282884734545 0.2070487186754242
0.0119 6366.670174153601 1.000244486031945 1.550365022496796 280.5438680015949 0.2058570162576301
0.012 6366.683215761519 1.000244167978271 1.550280513540088 280.4590975501263 0.2046664688153098
0.0121 6366.696311223109 1.000243848943726 1.550195988617269 280.3739770497931 0.2034771241443695
0.0122 6366.709460549057 1.000243528931864 1.550111447675069 280.2885064311266 0.2022890298011018
0.0123 6366.722663750091 1.000243207946246 1.550026890660389 280.20268562441 0.2011022330986408
0.0124 6366.735920836969 1.000242885990446 1.549942317520267 280.1165145597018 0.1999167811042704
0.0125 6366.74923182049 1.000242563068044 1.549857728201931 280.0299931668122 0.1987327206361045
0.0126 6366.762596711487 1.000242239182635 1.549773122652744 279.9431213753327 0.1975500982605257
0.0127 6366.77601552083 1.000241914337821 1.549688500820246 279.8558991146064 0.1963689602888403
0.0128 6366.789488259423 1.000241588537212 1.549603862652163 279.7683263137518 0.195189352774689
0.0129 6366.803014938207 1.000241261784433 1.549519208096326 279.680402901657 0.1940113215110795
0.013 6366.816595568157 1.000240934083114 1.549434537100792 279.5921288069793 0.1928349120275289
0.0131 6366.830230160285 1.000240605436896 1.549349849613743 279.5035039581456 0.1916601695872339
0.0132 6366.84391872564 1.000240275849431 1.549265145583537 279.4145282833405 0.1904871391841147
0.0133 6366.857661275301 1.00023994532438 1.549180424958696 279.3252017105414 0.1893158655405109
0.0134 6366.871457820387 1.000239613865412 1.549095687687911 279.2355241674835 0.1881463931039689
0.0135 6366.88530837205 1.000239281476207 1.549010933720055 279.1454955816774 0.1869787660447621
0.0136 6366.899212941476 1.000238948160455 1.548926163004101 279.0551158804032 0.185813028253129
0.0137 6366.913171539889 1.000238613921855 1.548841375489249 278.9643849907219 0.1846492233367704
0.0138 6366.927184178545 1.000238278764113 1.548756571124851 278.8733028394585 0.1834873946179958
0.0139 6366.941250868736 1.000237942690948 1.548671749860403 278.7818693532189 0.1823275851313563
0.014 6366.955371621787 1.000237605706086 1.548586911645593 278.6900844583846 0.1811698376210038
0.0141 6366.96954644906 1.000237267813263 1.548502056430249 278.5979480811123 0.1800141945381566
0.0142 6366.983775361949 1.000236929016223 1.548417184164388 278.5054601473342 0.1788606980385964
0.0143 6366.998058371882 1.000236589318721 1.548332294798187 278.4126205827696 0.1777093899803432
0.0144 6367.012395490323 1.00023624872452 1.548247388281982 278.3194293129012 0.1765603119209207
0.0145 6367.026786728769 1.000235907237393 1.548162464566255 278.2258862629991 0.1754135051152406
0.0146 6367.041232098753 1.000235564861119 1.548077523601718 278.1319913581086 0.1742690105130792
0.0147 6367.055731611837 1.000235221599489 1.547992565339165 278.0377445230623 0.1731268687568762
0.0148 6367.070285279619 1.000234877456303 1.547907589729632 277.943145682474 0.1719871201793476
0.0149 6367.084893113735 1.000234532435367 1.547822596724266 277.848194760721 0.1708498048009938
0.015 6367.099555125848 1.000234186540499 1.547737586274439 277.7528916819855 0.1697149623283485
0.0151 6367.114271327658 1.000233839775523 1.547652558331628 277.6572363702252 0.1685826321514066
0.0152 6367.129041730896 1.000233492144275 1.547567512847503 277.561228749173 0.1674528533414452
0.0153 6367.14386634733 1.000233143650594 1.547482449773926 277.464868742355 0.1663256646490836
0.0154 6367.158745188758 1.000232794298335 1.547397369062878 277.3681562730725 0.1652011045019597
0.0155 6367.17367826701 1.000232444091355 1.547312270666558 277.2710912644319 0.1640792110029919
0.0156 6367.188665593952 1.000232093033522 1.547227154537303 277.173673639309 0.1629600219279178
0.0157 6367.203707181481 1.000231741128714 1.547142020627623 277.0759033203725 0.1618435747235555
0.0158 6367.218803041527 1.000231388380816 1.547056868890199 276.9777802300727 0.160729906505688
0.0159 6367.233953186053 1.00023103479372 1.54697169927788 276.8793042906585 0.159619054057319
0.016 6367.249157627052 1.000230680371327 1.546886511743696 276.7804754241605 0.1585110538265606
0.0161 6367.264416376554 1.000230325117549 1.546801306240794 276.6812935523961 0.1574059419248251
0.0162 6367.279729446618 1.000229969036303 1.546716082722575 276.581758596982 0.1563037541251152
0.0163 6367.295096849335 1.000229612131513 1.546630841142557 276.4818704793219 0.1552045258600855
0.0164 6367.310518596829 1.000229254407116 1.546545581454404 276.3816291206125 0.1541082922203367
0.0165 6367.325994701257 1.000228895867052 1.546460303612012 276.281034441832 0.1530150879525521
0.0166 6367.341525174804 1.000228536515272 1.546375007569398 276.1800863637753 0.1519249474581826
0.0167 6367.357110029691 1.000228176355733 1.546289693280784 276.0787848070066 0.1508379047912691
0.0168 6367.37274927817 1.000227815392403 1.546204360700517 275.9771296918951 0.1497539936571985
0.0169 6367.388442932522 1.000227453629253 1.546119009783166 275.875120938609 0.1486732474110459
0.017 6367.404191005061 1.000227091070267 1.546033640483423 275.7727584671037 0.1475956990558923
0.0171 6367.419993508132 1.000226727719432 1.545948252756198 275.6700421971394 0.1465213812414924
0.0172 6367.435850454113 1.000226363580745 1.54586284655654 275.5669720482637 0.1454503262626044
0.0173 6367.45176185541 1.000225998658212 1.54577742183966 275.4635479398347 0.1443825660577893
0.0174 6367.467727724462 1.000225632955843 1.545691978560985 275.359769790998 0.1433181322077542
0.0175 6367.483748073738 1.000225266477659 1.545606516676054 275.255637520704 0.1422570559341623
0.0176 6367.499822915738 1.000224899227686 1.545521036140633 275.151151047702 0.1411993680982345
0.0177 6367.515952262994 1.000224531209958 1.545435536910614 275.0463102905404 0.1401450991994492
0.0178 6367.532136128067 1.000224162428518 1.545350018942086 274.9411151675666 0.1390942793742806
0.0179 6367.548374523548 1.000223792887414 1.545264482191317 274.8355655969389 0.13804693839509
0.018 6367.564667462059 1.000223422590702 1.545178926614732 274.7296614966143 0.1370031056688184
0.0181 6367.581014956253 1.000223051542445 1.545093352168928 274.6234027843551 0.1359628102358945
0.0182 6367.597417018813 1.000222679746716 1.545007758810662 274.5167893777165 0.1349260807690055
0.0183 6367.613873662451 1.000222307207589 1.544922146496909 274.4098211940703 0.1338929455722528
0.0184 6367.63038489991 1.000221933929151 1.544836515184785 274.3024981505877 0.1328634325799396
0.0185 6367.646950743961 1.000221559915494 1.544750864831542 274.1948201642502 0.1318375693556849
0.0186 6367.663571207408 1.000221185170715 1.544665195394695 274.0867871518448 0.1308153830914029
0.0187 6367.680246303083 1.00022080969892 1.544579506831835 273.9783990299628 0.1297969006063789
0.0188 6367.696976043845 1.000220433504221 1.544493799100815 273.8696557150068 0.1287821483464377
0.0189 6367.713760442586 1.000220056590738 1.544408072159585 273.7605571231901 0.1277711523830935
0.019 6367.730599512225 1.000219678962596 1.544322325966308 273.6511031705367 0.1267639384127387
0.0191 6367.747493265711 1.000219300623927 1.544236560479327 273.5412937728755 0.1257605317558158
0.0192 6367.764441716025 1.000218921578872 1.544150775657142 273.4311288458406 0.124760957356085
0.0193 6367.781444876169 1.000218541831574 1.544064971458443 273.3206083049002 0.1237652397801942
0.0194 6367.798502759182 1.000218161386187 1.54397914784206 273.209732065316 0.1227734032166447
0.0195 6367.815615378128 1.000217780246869 1.543893304767025 273.0985000421659 0.1217854714753863
0.0196 6367.832782746101 1.000217398417784 1.54380744219257 272.9869121503451 0.1208014679872342
0.0197 6367.850004876222 1.000217015903105 1.543721560078033 272.8749683045593 0.1198214158032727
0.0198 6367.86728178164 1.000216632707009 1.543635658382963 272.7626684193368 0.1188453375944536
0.0199 6367.884613475537 1.000216248833679 1.543549737067114 272.6500124090111 0.1178732556509743
0.02 6367.901999971116 1.000215864287306 1.543463796090365 272.537000187744 0.1169051918820546
0.0201 6367.919441281614 1.000215479072086 1.543377835412824 272.4236316695082 0.1159411678153925
