#theta R n z T P_w
0 6365.5 1.000285141474205 1.560324351282931 288.15 2.728276537768332
0.0001 6365.506698014227 1.000284935404555 1.560243855061222 288.1064629075221 2.720637191751931
0.0002 6365.513447281196 1.000284727911544 1.560163345000256 288.0625926722258 2.712958400783981
0.0003 6365.52024780997 1.000284518998254 1.560082820995015 288.0183892351951 2.705240548643004
0.0004 6365.527099609677 1.000284308667788 1.560002282940824 287.9738525370998 2.697484020657099
0.0005 6365.534002689516 1.000284096923268 1.559921730733657 287.9289825181489 2.689689203668224
0.0006000000000000001 6365.540957058752 1.000283883767833 1.559841164269779 287.8837791181139 2.681856486008776
0.0007 6365.54796272672 1.000283669204642 1.559760583446023 287.8382422763169 2.673986257471894
0.0008 6365.555019702825 1.000283453236872 1.559679988159605 287.7923719316367 2.666078909284746
0.0009000000000000001 6365.562127996535 1.000283235867717 1.559599378308253 287.7461680225205 2.658134834082723
0.001 6365.569287617387 1.000283017100391 1.559518753790171 287.6996304869839 2.650154425881489
0.0011 6365.576498574985 1.000282796938126 1.559438114503916 287.6527592625993 2.642138080046914
0.0012 6365.583760878997 1.000282575384172 1.559357460348616 287.6055542865191 2.634086193271003
0.0013 6365.591074539162 1.000282352441797 1.559276791223698 287.5580154954467 2.625999163538631
0.0014 6365.598439565281 1.000282128114286 1.55919610702914 287.5101428256716 2.617877390105297
0.0015 6365.605855967224 1.000281902404943 1.559115407665323 287.4619362130455 2.60972127346471
0.0016 6365.613323754922 1.00028167531709 1.559034693033049 287.4133955930068 2.601531215324327
0.0017 6365.620842938377 1.000281446854065 1.558953963033561 287.3645209005502 2.593307618571821
0.0018 6365.62841352765 1.000281217019225 1.558873217568562 287.3153120702744 2.58505088725442
0.0019 6365.63603553287 1.000280985815944 1.558792456540168 287.2657690363466 2.576761426544224
0.002 6365.64370896423 1.000280753247614 1.558711679850899 287.2158917325081 2.568439642710445
0.0021 6365.651433831986 1.000280519317643 1.558630887403711 287.1656800920927 2.560085943093523
0.0022 6365.659210146459 1.000280284029457 1.558550079101995 287.1151340480141 2.551700736074238
0.0023 6365.667037918034 1.000280047386499 1.558469254849629 287.0642535327783 2.543284431046691
0.0024 6365.674917157156 1.00027980939223 1.558388414550774 287.0130384784833 2.534837438389251
0.0025 6365.682847874337 1.000279570050127 1.55830755811005 286.9614888168074 2.526360169433498
0.0026 6365.690830080151 1.000279329363682 1.558226685432616 286.9096044790211 2.517853036437016
0.0027 6365.698863785231 1.000279087336406 1.558145796423933 286.8573853959987 2.509316452556108
0.0028 6365.706949000276 1.000278843971828 1.558064890989889 286.8048314982065 2.50075083181456
0.0029 6365.715085736047 1.00027859927349 1.557983969036806 286.7519427156971 2.492156589073367
0.003 6365.723274003362 1.000278353244952 1.557903030471454 286.6987189781447 2.483534140007116
0.0031 6365.731513813107 1.000278105889791 1.557822075200911 286.6451602148039 2.474883901067825
0.0032 6365.739805176225 1.0002778572116 1.557741103132797 286.591266354539 2.466206289460279
0.0033 6365.74814810372 1.000277607213987 1.557660114175086 286.5370373258182 2.457501723111538
0.0034 6365.756542606659 1.000277355900576 1.557579108236127 286.4824730567196 2.448770620642333
0.0035 6365.764988696166 1.00027710327501 1.557498085224725 286.4275734749193 2.440013401335574
0.0036 6365.773486383429 1.000276849340943 1.55741704505009 286.3723385077091 2.431230485109551
0.0037 6365.782035679693 1.000276594102049 1.557335987621839 286.3167680819964 2.422422292488266
0.0038 6365.790636596264 1.000276337562015 1.557254912849979 286.260862124287 2.41358924456891
0.0039 6365.799289144505 1.000276079724546 1.557173820644919 286.2046205607197 2.404731762997764
0.004 6365.807993335842 1.000275820593358 1.557092710917536 286.1480433170258 2.395850269933906
0.0041 6365.816749181757 1.000275560172188 1.557011583579028 286.0911303185816 2.386945188027814
0.004200000000000001 6365.825556693792 1.000275298464784 1.556930438541071 286.0338814903497 2.378016940382284
0.0043 6365.834415883547 1.000275035474911 1.556849275715698 285.976296756944 2.369065950532799
0.0044 6365.843326762679 1.000274771206348 1.556768095015374 285.918376042588 2.360092642411216
0.004500000000000001 6365.852289342904 1.000274505662889 1.556686896352965 285.860119271127 2.35109744031777
0.0046 6365.861303635994 1.000274238848345 1.556605679641721 285.8015263660399 2.342080768893048
0.0047 6365.870369653781 1.000273970766538 1.556524444795336 285.742597250421 2.333043053085375
0.0048 6365.879487408152 1.000273701421308 1.55644319172786 285.6833318470102 2.323984718125491
0.0049 6365.888656911053 1.000273430816506 1.556361920353813 285.6237300781571 2.314906189491235
0.005 6365.897878174483 1.000273158956002 1.556280630588042 285.5637918658625 2.305807892883987
0.0051 6365.907151210498 1.000272885843676 1.55619932234588 285.5035171317608 2.296690254196065
0.005200000000000001 6365.916476031214 1.000272611483425 1.556117995542954 285.4429057971078 2.287553699479069
0.0053 6365.925852648798 1.000272335879158 1.556036650095408 285.3819577828107 2.278398654918485
0.0054 6365.935281075476 1.000272059034798 1.555955285919737 285.3206730094042 2.269225546800253
0.005500000000000001 6365.944761323527 1.000271780954285 1.555873902932813 285.2590513970744 2.260034801484459
0.0056 6365.954293405286 1.000271501641569 1.555792501051985 285.1970928656405 2.250826845372852
0.0057 6365.963877333144 1.000271221100616 1.555711080194917 285.1347973345672 2.24160210488078
0.0058 6365.973513119543 1.000270939335403 1.555629640279747 285.0721647229706 2.232361006408265
0.0059 6365.983200776983 1.000270656349924 1.555548181224977 285.0091949496117 2.223103976309329
0.006 6365.992940318015 1.000270372148182 1.555466702949566 284.945887932903 2.213831440863109
0.0061 6366.002731755246 1.000270086734198 1.555385205372783 284.8822435909022 2.204543826243256
0.006200000000000001 6366.012575101336 1.000269800112003 1.555303688414367 284.8182618413183 2.195241558489098
0.0063 6366.022470368997 1.000269512285641 1.555222151994473 284.7539426015172 2.185925063476829
0.0064 6366.032417570995 1.00026922325917 1.555140596033612 284.689285788534 2.176594766891557
0.006500000000000001 6366.042416720148 1.000268933036659 1.555059020452755 284.6242913190371 2.167251094192573
0.0066 6366.05246782933 1.000268641622194 1.554977425173185 284.5589591093579 2.157894470588078
0.0067 6366.06257091146 1.000268349019867 1.554895810116688 284.4932890755089 2.148525321008169
0.0068 6366.072725979517 1.000268055233788 1.554814175205403 284.4272811331415 2.139144070069429
0.006900000000000001 6366.082933046527 1.000267760268076 1.554732520361882 284.3609351975764 2.129751142049733
0.007 6366.093192125569 1.000267464126865 1.554650845509043 284.2942511838031 2.120346960858843
0.0071 6366.103503229771 1.000267166814298 1.554569150570321 284.227229006486 2.110931950009894
0.007200000000000001 6366.113866372315 1.000266868334533 1.554487435469407 284.1598685799526 2.101506532588436
0.0073 6366.124281566432 1.000266568691737 1.554405700130527 284.0921698181932 2.092071131223223
0.0074 6366.134748825403 1.00026626789009 1.554323944478228 284.024132634879 2.082626168059522
0.007500000000000001 6366.145268162561 1.000265965933786 1.554242168437491 283.9557569433563 2.073172064729169
0.0076 6366.155839591287 1.000265662827026 1.554160371933739 283.887042656634 2.063709242319891
0.0077 6366.166463125014 1.000265358574026 1.554078554892679 283.8179896874079 2.054238121349607
0.007800000000000001 6366.177138777222 1.000265053179012 1.553996717240588 283.7485979480547 2.044759121736681
0.007900000000000001 6366.187866561442 1.000264746646222 1.553914858904008 283.6788673506256 2.035272662770281
0.008 6366.198646491252 1.000264438979902 1.553832979809981 283.6087978068589 2.025779163083228
0.0081 6366.209478580281 1.000264130184314 1.55375107988589 283.5383892281733 2.016279040622497
0.008200000000000001 6366.220362842205 1.000263820263728 1.553669159059569 283.4676415256685 2.006772712620622
0.0083 6366.231299290747 1.000263509222423 1.553587217259271 283.3965546101425 1.997260595569545
0.008400000000000001 6366.242287939681 1.000263197064692 1.553505254413572 283.3251283920744 1.987743105189786
0.008500000000000001 6366.253328802826 1.000262883794837 1.553423270451529 283.2533627816296 1.978220656402893
0.0086 6366.26442189405 1.000262569417171 1.553341265302599 283.1812576886722 1.968693663304736
0.008700000000000001 6366.275567227267 1.000262253936016 1.5532592388966 283.1088130227648 1.959162539137319
0.008800000000000001 6366.286764816438 1.000261937355706 1.553177191163811 283.0360286931508 1.949627696258365
0.0089 6366.298014675572 1.000261619680584 1.553095122034896 282.9629046087838 1.940089546117214
0.009000000000000001 6366.309316818721 1.000261300915002 1.553013031440934 282.889440678316 1.930548499225369
0.0091 6366.320671259987 1.000260981063325 1.552930919313364 282.8156368100862 1.921004965127184
0.0092 6366.332078013515 1.000260660129923 1.552848785584103 282.7414929121495 1.911459352376019
0.009300000000000001 6366.343537093499 1.00026033811918 1.552766630185445 282.6670088922536 1.901912068503598
0.0094 6366.355048514176 1.000260015035487 1.55268445305008 282.5921846578566 1.89236351999483
0.0095 6366.366612289826 1.000259690883246 1.552602254111115 282.5170201161326 1.882814112261191
0.009600000000000001 6366.378228434777 1.000259365666867 1.552520033302066 282.4415151739485 1.873264249610471
0.0097 6366.389896963402 1.000259039390769 1.552437790556858 282.3656697378873 1.863714335222664
0.0098 6366.401617890116 1.000258712059382 1.552355525809823 282.2894837142484 1.854164771122941
0.009900000000000001 6366.413391229378 1.000258383677142 1.552273238995698 282.2129570090414 1.844615958154022
0.01 6366.425216995693 1.000258054248496 1.55219093004966 282.136089527998 1.835068295950882
0.0101 6366.437095203608 1.000257723777899 1.552108598907224 282.0588811765487 1.825522182911178
0.0102 6366.449025867714 1.000257392269815 1.552026245504366 281.9813318598575 1.81597801617315
0.0103 6366.461009002644 1.000257059728715 1.551943869777474 281.903441482811 1.806436191587757
0.0104 6366.473044623075 1.000256726159082 1.55186147166332 281.8252099500118 1.7968971036917
0.0105 6366.485132743726 1.000256391565401 1.551779051099099 281.7466371657787 1.787361145681338
0.0106 6366.497273379357 1.000256055952172 1.55169660802243 281.6677230341764 1.777828709390291
0.0107 6366.509466544773 1.000255719323899 1.551614142371277 281.5884674589742 1.768300185258594
0.0108 6366.521712254818 1.000255381685093 1.551531654084125 281.5088703436808 1.758775962311304
0.0109 6366.534010524379 1.000255043040276 1.55144914309973 281.4289315915393 1.749256428132223
0.011 6366.546361368381 1.000254703393977 1.551366609357366 281.3486511055206 1.73974196883779
0.0111 6366.558764801796 1.00025436275073 1.551284052796677 281.2680287883239 1.730232969051849
0.0112 6366.571220839633 1.000254021115079 1.551201473357714 281.1870645423882 1.720729811881952
0.0113 6366.583729496939 1.000253678491575 1.55111887098094 281.105758269898 1.711232878895098
0.0114 6366.596290788805 1.000253334884775 1.551036245607237 281.0241098727664 1.701742550090864
0.0115 6366.608904730362 1.000252990299243 1.550953597177871 280.942119252646 1.692259203878179
0.0116 6366.62157133678 1.000252644739553 1.550870925634513 280.8597863109293 1.682783217050857
0.0117 6366.634290623268 1.000252298210282 1.550788230919298 280.7771109487607 1.673314964764658
0.0118 6366.647062605072 1.000251950716016 1.550705512974726 280.6940930670302 1.663854820512458
0.0119 6366.659887297482 1.000251602261346 1.550622771743701 280.6107325663678 1.654403156099611
0.012 6366.672764715822 1.000251252850872 1.550540007169551 280.5270293471552 1.644960341621507
0.0121 6366.685694875458 1.000250902489198 1.550457219196018 280.4429833095259 1.635526745439938
0.0122 6366.698677791789 1.000250551180936 1.550374407767241 280.3585943533707 1.626102734160302
0.0123 6366.711713480257 1.000250198930704 1.550291572827758 280.2738623783265 1.616688672607009
0.0124 6366.724801956341 1.000249845743123 1.550208714322566 280.1887872837818 1.60728492380106
0.0125 6366.737943235556 1.000249491622826 1.550125832196981 280.1033689688887 1.597891848938442
0.0126 6366.751137333452 1.000249136574445 1.550042926396821 280.0176073325628 1.588509807367384
0.0127 6366.76438426562 1.000248780602624 1.54995999686825 279.9315022734712 1.579139156564514
0.0128 6366.777684047686 1.000248423712008 1.549877043557855 279.845053690039 1.569780252113167
0.0129 6366.791036695313 1.000248065907249 1.549794066412633 279.7582614804663 1.560433447683141
0.013 6366.804442224196 1.000247707193006 1.549711065380021 279.671125542723 1.551099095008054
0.0131 6366.817900650072 1.000247347573942 1.549628040407798 279.5836457745303 1.541777543861671
0.0132 6366.83141198871 1.000246987054723 1.549544991444223 279.4958220733851 1.532469142038861
0.0133 6366.844976255915 1.000246625640023 1.549461918437878 279.4076543365535 1.523174235333577
0.0134 6366.858593467527 1.000246263334522 1.549378821337819 279.3191424610771 1.513893167518283
0.0135 6366.87226363942 1.000245900142901 1.549295700093507 279.2302863437729 1.504626280322969
0.0136 6366.885986787503 1.000245536069847 1.549212554654789 279.1410858812332 1.49537391341436
0.0137 6366.899762927721 1.000245171120055 1.549129384971881 279.0515409698136 1.486136404374133
0.0138 6366.913592076052 1.00024480529822 1.549046190995469 278.9616515056631 1.476914088681613
0.0139 6366.927474248506 1.000244438609043 1.548962972676613 278.8714173847119 1.46770729969237
0.014 6366.94140946113 1.000244071057231 1.548879729966792 278.7808385026536 1.458516368616483
0.0141 6366.955397730001 1.000243702647492 1.548796462817876 278.6899147549929 1.44934162450362
0.0142 6366.969439071231 1.00024333338454 1.548713171182133 278.5986460369976 1.440183394218717
0.0143 6366.983533500964 1.000242963273094 1.548629855012257 278.5070322437349 1.431042002426271
0.0144 6366.997681035376 1.000242592317874 1.548546514261349 278.4150732700531 1.421917771569478
0.0145 6367.011881690678 1.000242220523607 1.548463148882895 278.3227690105936 1.412811021852556
0.0146 6367.026135483108 1.00024184789502 1.548379758830774 278.2301193597967 1.403722071222691
0.0147 6367.040442428941 1.000241474436846 1.548296344059308 278.1371242118843 1.39465123534988
0.0148 6367.05480254448 1.000241100153822 1.548212904523184 278.0437834608828 1.385598827611071
0.0149 6367.06921584606 1.000240725050687 1.548129440177499 277.9500970006119 1.376565159071054
0.015 6367.083682350049 1.000240349132182 1.548045950977763 277.8560647246844 1.367550538464741
0.0151 6367.098202072843 1.000239972403054 1.547962436879882 277.761686526518 1.358555272180823
0.0152 6367.112775030871 1.00023959486805 1.547878897840183 277.6669622993353 1.349579664244493
0.0153 6367.12740124059 1.000239216531923 1.547795333815349 277.5718919361638 1.340624016300425
0.0154 6367.142080718488 1.000238837399426 1.547711744762497 277.4764753298299 1.331688627595425
0.0155 6367.156813481082 1.000238457475316 1.54762813063913 277.3807123729651 1.322773794962458
0.0156 6367.17159954492 1.000238076764353 1.54754449140315 277.2846029580177 1.313879812805433
0.0157 6367.186438926578 1.000237695271298 1.547460827012894 277.1881469772405 1.30500697308204
0.0158 6367.201331642662 1.000237313000916 1.547377137427016 277.0913443226976 1.296155565288471
0.0159 6367.216277709806 1.000236929957973 1.547293422604645 276.9941948862637 1.287325876443857
0.016 6367.231277144671 1.000236546147237 1.547209682505266 276.8966985596361 1.278518191076005
0.0161 6367.24632996395 1.00023616157348 1.547125917088788 276.798855234323 1.26973279120524
0.0162 6367.261436184362 1.000235776241474 1.547042126315486 276.7006648016494 1.260969956330109
0.0163 6367.276595822651 1.000235390155993 1.546958310146045 276.6021271527687 1.252229963413857
0.0164 6367.291808895593 1.000235003321814 1.546874468541555 276.5032421786453 1.243513086868506
0.0165 6367.307075419989 1.000234615743714 1.546790601463481 276.4040097700721 1.234819598542366
0.0166 6367.322395412666 1.000234227426473 1.546706708873711 276.3044298176704 1.226149767706192
0.0167 6367.337768890481 1.000233838374871 1.546622790734475 276.2045022118726 1.217503861038082
0.0168 6367.353195870315 1.000233448593691 1.546538847008448 276.1042268429513 1.208882142612745
0.0169 6367.368676369076 1.000233058087716 1.546454877658658 276.0036036010077 1.200284873887411
0.017 6367.384210403697 1.000232666861731 1.546370882648547 275.9026323759716 1.191712313689046
0.0171 6367.399797991137 1.000232274920521 1.546286861941952 275.8013130576072 1.183164718202327
0.0172 6367.415439148383 1.000231882268872 1.546202815503069 275.6996455355073 1.174642340956884
0.0173 6367.431133892444 1.000231488911573 1.546118743296509 275.5976296991111 1.166145432816779
0.0174 6367.446882240356 1.00023109485341 1.546034645287286 275.495265437686 1.157674241967286
0.0175 6367.462684209179 1.000230700099172 1.545950521440752 275.3925526403344 1.149229013903925
0.0176 6367.478539815997 1.00023030465365 1.545866371722692 275.2894911960165 1.140809991423203
0.0177 6367.49444907792 1.000229908521632 1.545782196099242 275.1860809935209 1.132417414609233
0.0178 6367.510412012081 1.000229511707909 1.545697994536948 275.0823219214711 1.124051520823588
0.0179 6367.526428635636 1.00022911421727 1.545613767002744 274.9782138683662 1.115712544698229
0.018 6367.542498965766 1.000228716054507 1.545529513463925 274.873756722522 1.107400718120615
0.0181 6367.558623019676 1.000228317224411 1.545445233888165 274.7689503721066 1.099116270226725
0.0182 6367.574800814591 1.00022791773177 1.545360928243572 274.663794705158 1.090859427392857
0.0183 6367.591032367762 1.000227517581376 1.545276596498564 274.5582896095488 1.082630413223512
0.0184 6367.60731769646 1.00022711677802 1.545192238622002 274.4524349730094 1.07442944854424
0.0185 6367.623656817981 1.00022671532649 1.545107854583078 274.3462306831228 1.066256751392415
0.0186 6367.640049749642 1.000226313231577 1.545023444351394 274.239676627324 1.058112537008766
0.0187 6367.656496508781 1.000225910498069 1.544939007896917 274.1327726929238 1.049997017830977
0.0188 6367.672997112759 1.000225507130755 1.544854545189997 274.0255187670676 1.041910403482609
0.0189 6367.689551578957 1.000225103134423 1.544770056201342 273.9179147367767 1.033852900768606
0.019 6367.706159924779 1.00022469851386 1.544685540902064 273.8099604889361 1.025824713667022
0.0191 6367.722822167648 1.000224293273851 1.544600999263638 273.7016559102893 1.017826043321492
0.0192 6367.739538325009 1.000223887419183 1.544516431257909 273.5930008874437 1.009857088034883
0.0193 6367.756308414328 1.000223480954639 1.544431836857068 273.4839953068707 1.00191804326277
0.0194 6367.77313245309 1.000223073885002 1.544347216033739 273.3746390549176 0.994009101608058
0.0195 6367.7900104588 1.000222666215054 1.544262568760856 273.2649320178015 0.986130452814586
0.0196 6367.806942448984 1.000222257949577 1.544177895011755 273.1548740816037 0.9782822837610301
0.0197 6367.823928441187 1.000221849093349 1.544093194760135 273.0444651322872 0.9704647784567833
0.0198 6367.840968452972 1.000221439651148 1.544008467980063 272.933705055685 0.962678118035999
0.0199 6367.858062501921 1.00022102962775 1.543923714645965 272.8225937375117 0.9549224807536032
0.02 6367.875210605639 1.00022061902793 1.543838934732651 272.7111310633462 0.947198041979516
0.0201 6367.892412781745 1.000220207856461 1.543754128215254 272.5993169186548 0.9395049741960542
0.0202 6367.90966904788 1.000219796118115 1.543669295069318 272.4871511887799 0.9318434469931376
0.0203 6367.926979421699 1.000219383817659 1.543584435270734 272.3746337589572 0.9242136270658164
