#theta R n z T P_w
0 6365.5 1.000311979937836 1.560324351282931 288.15 8.696381464136557
0.0001 6365.506698014227 1.000311706825546 1.560250207498056 288.1064629075221 8.672031048709279
0.0002 6365.513443237091 1.000311432086305 1.560176036335106 288.0626189589115 8.647569550217893
0.0003 6365.520235686244 1.000311155725271 1.560101837625412 288.0184680394158 8.622998051161117
0.0004 6365.527075379449 1.000310877747628 1.560027611201253 287.9740100335792 8.598317638009236
0.0005 6365.533962334579 1.000310598158586 1.559953356895714 287.9292448252367 8.573529401134023
0.0006000000000000001 6365.540896569612 1.00031031696338 1.559879074542734 287.8841722975193 8.548634434744988
0.0007 6365.547878102637 1.000310034167274 1.559804763977157 287.8387923328609 8.523633836825319
0.0008 6365.554906951846 1.000309749775554 1.559730425034537 287.7931048130034 8.498528709067536
0.0009000000000000001 6365.561983135539 1.000309463793531 1.559656057551503 287.7471096189973 8.473320156805586
0.001 6365.569106672123 1.000309176226546 1.559581661365303 287.7008066312013 8.448009288946755
0.0011 6365.576277580108 1.000308887079959 1.559507236314214 287.6541957293001 8.422597217912928
0.0012 6365.583495878111 1.000308596359159 1.559432782237255 287.6072767922809 8.397085059559069
0.0013 6365.590761584851 1.000308304069559 1.559358298974288 287.5600496984688 8.371473933123625
0.0014 6365.598074719153 1.000308010216595 1.559283786366088 287.512514325503 8.345764961146527
0.0015 6365.605435299944 1.000307714805728 1.559209244254233 287.4646705503609 8.319959269412617
0.0016 6365.612843346255 1.000307417842443 1.559134672481193 287.4165182493456 8.294057986875623
0.0017 6365.620298877216 1.00030711933225 1.5590600708902 287.3680572980983 8.268062245594665
0.0018 6365.62780191206 1.000306819280681 1.558985439325435 287.3192875716098 8.24197318067049
0.0019 6365.635352470124 1.000306517693293 1.558910777631849 287.2702089441972 8.215791930162474
0.002 6365.642950570839 1.000306214575666 1.558836085655298 287.2208212895447 8.189519635040201
0.0021 6365.650596233743 1.000305909933402 1.558761363242394 287.1711244806687 8.163157439093748
0.0022 6365.65828947847 1.000305603772129 1.558686610240714 287.1211183899471 8.136706488878486
0.0023 6365.666030324752 1.000305296097493 1.558611826498614 287.0708028891135 8.110167933640705
0.0024 6365.67381879242 1.000304986915167 1.558537011865354 287.0201778492686 8.083542925252452
0.0025 6365.681654901405 1.000304676230846 1.558462166190961 286.9692431408693 8.056832618133715
0.0026 6365.689538671732 1.000304364050243 1.558387289326385 286.9179986337393 8.030038169186856
0.0027 6365.697470123526 1.000304050379098 1.558312381123391 286.8664441970822 8.003160737730811
0.0028 6365.705449277003 1.000303735223171 1.55823744143457 286.8145796994803 7.976201485428843
0.0029 6365.713476152481 1.000303418588243 1.558162470113454 286.762405008872 7.949161576203946
0.003 6365.72155077037 1.000303100480116 1.558087467014388 286.7099199925982 7.922042176190875
0.0031 6365.729673151172 1.000302780904616 1.558012431992502 286.6571245173794 7.894844453651126
0.0032 6365.73784331549 1.000302459867587 1.557937364903893 286.6040184493153 7.867569578900115
0.0033 6365.746061284013 1.000302137374895 1.557862265605429 286.5506016539142 7.840218724249326
0.0034 6365.754327077528 1.000301813432426 1.557787133954869 286.4968739960699 7.812793063920942
0.0035 6365.762640716911 1.000301488046089 1.557711969810858 286.4428353400789 7.785293773983588
0.0036 6365.771002223132 1.00030116122181 1.557636773032817 286.3884855496407 7.757722032278799
0.0037 6365.779411617254 1.000300832965536 1.557561543481114 286.3338244878518 7.7300790183444
0.0038 6365.787868920425 1.000300503283234 1.557486281016937 286.2788520172352 7.702365913355671
0.0039 6365.79637415389 1.000300172180892 1.557410985502384 286.2235679997169 7.674583900039425
0.004 6365.804927338978 1.000299839664514 1.557335656800332 286.1679722966436 7.646734162608914
0.0041 6365.81352849711 1.000299505740128 1.557260294774561 286.1120647687825 7.618817886689626
0.004200000000000001 6365.822177649797 1.000299170413775 1.557184899289777 286.0558452763215 7.590836259244979
0.0043 6365.830874818635 1.000298833691521 1.557109470211434 285.9993136788752 7.562790468504867
0.0044 6365.839620025308 1.000298495579446 1.557034007405941 285.9424698354964 7.534681703896982
0.004500000000000001 6365.84841329159 1.00029815608365 1.556958510740595 285.8853136046645 7.506511155966306
0.0046 6365.857254639338 1.000297815210251 1.55688298008346 285.8278448443033 7.478280016309141
0.0047 6365.866144090496 1.000297472965386 1.556807415303584 285.7700634117749 7.449989477495345
0.0048 6365.875081667094 1.000297129355207 1.556731816270829 285.7119691638917 7.421640732999204
0.0049 6365.884067391244 1.000296784385885 1.556656182855935 285.6535619569162 7.393234977124392
0.005 6365.893101285146 1.000296438063611 1.556580514930522 285.5948416465493 7.364773404923148
0.0051 6365.902183371081 1.000296090394587 1.556504812367113 285.5358080879718 7.336257212141198
0.005200000000000001 6365.911313671416 1.000295741385038 1.556429075039043 285.4764611357967 7.307687595119599
0.0053 6365.920492208596 1.000295391041202 1.556353302820595 285.4168006441231 7.279065750745163
0.0054 6365.929719005153 1.000295039369334 1.556277495586883 285.3568264665058 7.250392876360796
0.005500000000000001 6365.938994083696 1.000294686375705 1.556201653213954 285.2965384559737 7.221670169698633
0.0056 6365.948317466919 1.000294332066604 1.556125775578691 285.2359364650296 7.192898828804548
0.0057 6365.957689177591 1.000293976448332 1.556049862558878 285.1750203456558 7.164080051965455
0.0058 6365.967109238568 1.00029361952721 1.555973914033194 285.1137899493086 7.135215037630974
0.0059 6365.976577672778 1.00029326130957 1.555897929881177 285.052245126942 7.106304984349011
0.006 6365.986094503232 1.000292901801762 1.555821909983291 284.9903857289895 7.077351090681778
0.0061 6365.995659753018 1.00029254101015 1.555745854220863 284.9282116053822 7.048354555138507
0.006200000000000001 6366.005273445301 1.000292178941112 1.55566976247612 284.8657226055428 7.01931657609703
0.0063 6366.014935603323 1.000291815601041 1.555593634632173 284.8029185783975 6.990238351733648
0.0064 6366.024646250404 1.000291450996343 1.555517470573015 284.7397993723756 6.961121079947435
0.006500000000000001 6366.034405409937 1.000291085133441 1.55544127018358 284.6763648354103 6.931965958284608
0.0066 6366.044213105393 1.000290718018769 1.555365033349651 284.6126148149436 6.902774183865612
0.0067 6366.054069360316 1.000290349658774 1.555288759957891 284.5485491579451 6.873546953317577
0.0068 6366.063974198324 1.000289980059918 1.555212449895953 284.4841677108933 6.844285462690558
0.006900000000000001 6366.07392764311 1.000289609228676 1.555136103052306 284.4194703197821 6.81499090738469
0.007 6366.08392971844 1.000289237171535 1.555059719316279 284.3544568301385 6.785664482082677
0.0071 6366.09398044815 1.000288863894994 1.554983298578243 284.2891270870222 6.756307380674192
0.007200000000000001 6366.104079856152 1.000288489405566 1.554906840729339 284.2234809350142 6.726920796175092
0.0073 6366.114227966424 1.000288113709775 1.554830345661696 284.1575182182463 6.697505920665223
0.0074 6366.124424803018 1.000287736814156 1.554753813268283 284.0912387803832 6.668063945205064
0.007500000000000001 6366.134670390057 1.000287358725258 1.55467724344302 284.0246424646283 6.638596059763057
0.0076 6366.144964751732 1.00028697944964 1.554600636080707 283.9577291137419 6.609103453148208
0.0077 6366.155307912303 1.000286598993872 1.554523991077078 283.8904985700291 6.579587312929617
0.007800000000000001 6366.165699896099 1.000286217364535 1.55444730832876 283.8229506753572 6.550048825369164
0.007900000000000001 6366.176140727515 1.000285834568221 1.554370587733279 283.7550852711505 6.520489175343845
0.008 6366.186630431017 1.000285450611532 1.554293829189105 283.6869021983897 6.490909546270822
0.0081 6366.197169031134 1.000285065501081 1.554217032595548 283.6184012976299 6.46131112004028
0.008200000000000001 6366.207756552464 1.00028467924349 1.554140197852928 283.5495824089829 6.431695076932982
0.0083 6366.218393019669 1.000284291845392 1.554063324862383 283.4804453721525 6.402062595560894
0.008400000000000001 6366.229078457475 1.000283903313429 1.553986413526064 283.410990026411 6.372414852782415
0.008500000000000001 6366.239812890675 1.000283513654251 1.553909463746939 283.3412162106109 6.34275302363305
0.0086 6366.250596344124 1.000283122874519 1.553832475428965 283.271123763191 6.313078281253608
0.008700000000000001 6366.261428842741 1.000282730980901 1.553755448476969 283.200712522182 6.283391796818509
0.008800000000000001 6366.272310411507 1.000282337980076 1.553678382796719 283.1299823252069 6.253694739461711
0.0089 6366.283241075465 1.000281943878729 1.553601278294906 283.0589330094748 6.223988276200357
0.009000000000000001 6366.294220859721 1.000281548683554 1.55352413487911 282.9875644118105 6.19427357187339
0.0091 6366.30524978944 1.000281152401252 1.553446952457878 282.9158763686368 6.164551789060478
0.0092 6366.31632788985 1.000280755038533 1.55336973094064 282.8438687159745 6.134824088008628
0.009300000000000001 6366.327455186235 1.000280356602114 1.553292470237752 282.7715412894721 6.105091626571126
0.0094 6366.338631703941 1.000279957098719 1.553215170260517 282.6988939243819 6.075355560124632
0.0095 6366.349857468373 1.000279556535078 1.553137830921108 282.6259264555778 6.045617041503561
0.009600000000000001 6366.361132504991 1.000279154917928 1.553060452132699 282.5526387175554 6.015877220927331
0.0097 6366.372456839315 1.000278752254014 1.55298303380932 282.4790305444498 5.98613724593496
0.0098 6366.383830496922 1.000278348550085 1.55290557586594 282.4051017700057 5.956398261300738
0.009900000000000001 6366.395253503443 1.000277943812897 1.552828078218483 282.3308522276192 5.926661408978792
0.01 6366.406725884567 1.000277538049212 1.552750540783765 282.2562817503139 5.896927828021584
0.0101 6366.418247666037 1.000277131265797 1.55267296347957 282.1813901707586 5.86719865451529
0.0102 6366.42981887365 1.000276723469423 1.552595346224541 282.1061773212735 5.837475021510594
0.0103 6366.441439533261 1.000276314666868 1.552517688938307 282.0306430338063 5.807758058942073
0.0104 6366.453109670771 1.000275904864914 1.552439991541404 281.9547871399913 5.778048893580436
0.0105 6366.464829312138 1.000275494070347 1.552362253955299 281.8786094711021 5.748348648943024
0.0106 6366.476598483375 1.000275082289957 1.552284476102372 281.8021098580638 5.718658445227972
0.0107 6366.488417210541 1.000274669530539 1.552206657905965 281.725288131482 5.688979399255377
0.0108 6366.50028551975 1.000274255798891 1.552128799290303 281.6481441216255 5.659312624390291
0.0109 6366.512203437163 1.000273841101815 1.55205090018056 281.5706776584378 5.629659230477488
0.011 6366.524170988996 1.000273425446116 1.551972960502863 281.4928885715257 5.600020323767426
0.0111 6366.536188201508 1.000273008838601 1.551894980184284 281.4147766902 5.570397006862778
0.0112 6366.548255101011 1.000272591286082 1.551816959152704 281.3363418434291 5.540790378631425
0.0113 6366.560371713864 1.000272172795372 1.551738897337085 281.2575838598854 5.511201534155759
0.0114 6366.572538066473 1.000271753373285 1.551660794667221 281.1785025679281 5.481631564657522
0.0115 6366.58475418529 1.000271333026641 1.551582651073891 281.0990977956152 5.452081557434165
0.0116 6366.597020096817 1.000270911762258 1.551504466488754 281.0193693706909 5.422552595786676
0.0117 6366.609335827598 1.000270489586956 1.551426240844449 280.939317120616 5.393045758963099
0.0118 6366.621701404222 1.000270066507559 1.5513479740745 280.8589408725555 5.363562122086944
0.0119 6366.634116853326 1.00026964253089 1.551269666113409 280.778240453379 5.334102756090399
0.012 6366.646582201588 1.000269217663772 1.551191316896551 280.697215689678 5.304668727654326
0.0121 6366.65909747573 1.000268791913031 1.551112926360294 280.6158664077547 5.275261099137784
0.0122 6366.671662702517 1.000268365285492 1.551034494441847 280.5341924336389 5.245880928518666
0.0123 6366.684277908756 1.000267937787978 1.550956021079488 280.4521935930828 5.216529269326081
0.0124 6366.696943121296 1.000267509427316 1.550877506212274 280.3698697115727 5.187207170579499
0.0125 6366.709658367027 1.000267080210331 1.550798949780253 280.2872206143228 5.157915676721885
0.0126 6366.722423672881 1.000266650143846 1.550720351724443 280.2042461262753 5.128655827555399
0.0127 6366.735239065824 1.000266219234685 1.550641711986713 280.1209460721419 5.099428658191962
0.0128 6366.748104572869 1.000265787489668 1.550563030509938 280.0373202763507 5.070235198970887
0.0129 6366.761020221063 1.000265354915618 1.550484307237858 279.953368563093 5.041076475412286
0.013 6366.773986037491 1.000264921519353 1.550405542115172 279.8690907563063 5.011953508148014
0.0131 6366.787002049279 1.00026448730769 1.550326735087482 279.7844866796853 4.982867312863352
0.0132 6366.800068283586 1.000264052287445 1.550247886101335 279.6995561566886 4.953818900236998
0.0133 6366.81318476761 1.000263616465431 1.55016899510421 279.614299010538 4.924809275879428
0.0134 6366.826351528582 1.000263179848457 1.550090062044509 279.5287150642192 4.89583944027171
0.0135 6366.83956859377 1.000262742443332 1.55001108687153 279.442804140493 4.866910388708748
0.0136 6366.852835990479 1.00026230425686 1.549932069535505 279.3565660618896 4.838023111236933
0.0137 6366.866153746044 1.000261865295843 1.54985300998761 279.2700006507147 4.809178592596267
0.0138 6366.879521887835 1.000261425567078 1.549773908179952 279.183107729073 4.780377812168745
0.0139 6366.892940443255 1.000260985077359 1.549694764065507 279.0958871188444 4.751621743911432
0.014 6366.906409439737 1.000260543833476 1.549615577598225 279.0083386417081 4.722911356305735
0.0141 6366.91992890475 1.000260101842216 1.549536348732934 278.9204621191242 4.694247612293466
0.0142 6366.933498865791 1.000259659110361 1.549457077425413 278.832257372358 4.665631469226964
0.0143 6366.947119350389 1.000259215644685 1.549377763632364 278.7437242224736 4.637063878809976
0.0144 6366.960790386101 1.000258771451962 1.549298407311371 278.6548624903461 4.608545787044777
0.0145 6366.974512000515 1.00025832653896 1.549219008420943 278.5656719966495 4.580078134172159
0.0146 6366.988284221248 1.000257880912438 1.549139566920525 278.4761525618864 4.551661854625157
0.0147 6367.002107075945 1.000257434579152 1.549060082770489 278.3863040063583 4.523297876964394
0.0148 6367.015980592277 1.000256987545853 1.548980555932087 278.2961261502013 4.494987123834616
0.0149 6367.029904797942 1.000256539819286 1.548900986367462 278.2056188133741 4.466730511906675
0.015 6367.043879720669 1.000256091406186 1.548821374039722 278.1147818156522 4.438528951822006
0.0151 6367.057905388207 1.000255642313287 1.548741718912867 278.0236149766514 4.410383348146819
0.0152 6367.071981828334 1.000255192547311 1.548662020951797 277.9321181158278 4.382294599319357
0.0153 6367.086109068852 1.000254742114976 1.548582280122315 277.8402910524604 4.354263597592318
0.0154 6367.100287137587 1.000254291022993 1.548502496391129 277.7481336056861 4.326291228992127
0.0155 6367.114516062386 1.000253839278065 1.548422669725887 277.6556455944882 4.298378373264182
0.0156 6367.128795871125 1.000253386886886 1.548342800095089 277.5628268376903 4.270525903820563
0.0157 6367.143126591695 1.000252933856144 1.548262887468173 277.4696771539801 4.242734687697185
0.0158 6367.157508252017 1.000252480192518 1.548182931815454 277.3761963618916 4.215005585499044
0.0159 6367.171940880026 1.000252025902678 1.548102933108165 277.2823842798288 4.187339451358414
0.016 6367.186424503683 1.000251570993288 1.548022891318428 277.1882407260595 4.159737132884754
0.0161 6367.200959150966 1.000251115471 1.54794280641925 277.0937655187216 4.13219947111871
0.0162 6367.215544849874 1.00025065934246 1.547862678384538 276.9989584758172 4.104727300483261
0.0163 6367.230181628425 1.000250202614302 1.547782507189124 276.9038194152357 4.077321448744007
0.0164 6367.244869514655 1.000249745293152 1.547702292808681 276.8083481547427 4.049982736959725
0.0165 6367.259608536617 1.000249287385627 1.547622035219794 276.7125445119913 4.022711979440369
0.0166 6367.274398722384 1.000248828898334 1.547541734399928 276.6164083045045 3.99550998369724
0.0167 6367.289240100044 1.000248369837867 1.547461390327451 276.5199393497109 3.968377550408889
0.0168 6367.304132697702 1.000247910210814 1.547381002981595 276.4231374649383 3.941315473375762
0.0169 6367.319076543477 1.00024745002375 1.547300572342493 276.3260024673967 3.914324539472271
0.017 6367.334071665507 1.00024698928324 1.547220098391111 276.2285341742071 3.887405528612712
0.0171 6367.349118091939 1.000246527995838 1.547139581109368 276.1307324023959 3.860559213707835
0.0172 6367.364215850939 1.000246066168086 1.547059020480006 276.0325969688951 3.833786360623726
0.0173 6367.379364970684 1.000245603806516 1.546978416486641 275.9341276905537 3.807087728144555
0.0174 6367.394565479365 1.000245140917648 1.546897769113774 275.8353243841265 3.780464067929513
0.0175 6367.409817405185 1.000244677507989 1.546817078346783 275.7361868662969 3.753916124480007
0.0176 6367.425120776358 1.000244213584037 1.546736344171883 275.6367149536717 3.727444635099452
0.0177 6367.440475621111 1.000243749152275 1.546655566576203 275.5369084627808 3.701050329855352
0.0178 6367.455881967679 1.000243284219174 1.546574745547691 275.4367672100892 3.674733931545172
0.0179 6367.471339844309 1.000242818791195 1.546493881075169 275.3362910119907 3.648496155658149
0.018 6367.486849279259 1.000242352874782 1.546412973148327 275.2354796848143 3.622337710340919
0.0181 6367.502410300794 1.000241886476369 1.546332021757719 275.1343330448416 3.596259296366821
0.0182 6367.518022937187 1.000241419602377 1.546251026894708 275.0328509082832 3.570261607095144
0.0183 6367.533687216721 1.000240952259212 1.546169988551557 274.9310330913144 3.544345328446327
0.0184 6367.549403167685 1.000240484453268 1.546088906721344 274.8288794100453 3.518511138861106
0.0185 6367.565170818378 1.000240016190922 1.54600778139803 274.7263896805447 3.492759709274001
0.0186 6367.580990197101 1.000239547478543 1.545926612576369 274.623563718846 3.467091703082864
0.0187 6367.596861332162 1.00023907832248 1.545845400251996 274.5204013409469 3.44150777611763
0.0188 6367.612784251877 1.000238608729071 1.545764144421392 274.4169023627982 3.416008576606882
0.0189 6367.628758984565 1.000238138704638 1.545682845081825 274.3130666003266 3.390594745153916
0.019 6367.644785558548 1.000237668255489 1.545601502231443 274.2088938694354 3.365266914707564
0.0191 6367.660864002154 1.000237197387917 1.545520115869203 274.1043839859984 3.340025710532339
0.0192 6367.676994343714 1.0002367261082 1.545438685994879 273.9995367658597 3.314871750180769
0.0193 6367.693176611559 1.0002362544226 1.545357212609112 273.8943520248635 3.289805643473513
0.0194 6367.709410834027 1.000235782337365 1.545275695713315 273.7888295788242 3.264827992465962
0.0195 6367.725697039453 1.000235309858726 1.545194135309737 273.6829692435566 3.239939391429743
0.0196 6367.742035256176 1.000234836992898 1.54511253140148 273.5767708348575 3.215140426823665
0.0197 6367.758425512533 1.000234363746082 1.545030883992403 273.4702341685355 3.190431677276531
0.0198 6367.774867836865 1.000233890124462 1.544949193087205 273.3633590603757 3.165813713555482
0.0199 6367.79136225751 1.000233416134204 1.54486745869139 273.2561453261868 3.14128709855431
0.02 6367.807908802804 1.000232941781459 1.544785680811252 273.1485927817715 3.116852387264683
0.0201 6367.824507501085 1.000232467072361 1.544703859453912 273.0407012429445 3.092510126759043
0.0202 6367.841158380688 1.000231992013029 1.544621994627249 272.9324705255261 3.068260856168817
0.0203 6367.857861469945 1.000231516609562 1.54454008633998 272.8239004453607 3.044105106668705
