#theta R n z T P_w
0 6365.5 1.000293576419918 1.560324351282931 288.15 4.603966657484061
0.0001 6365.506698014227 1.000293349279724 1.560245851165887 288.1064629075221 4.591075261081384
0.0002 6365.513446010431 1.000293120643479 1.560167332960383 288.062600932199 4.578119738046
0.0003 6365.520244000369 1.000292890514995 1.560088796539494 288.0184139976039 4.565100712584923
0.0004 6365.527091995882 1.000292658898102 1.560010241776906 287.9739020267665 4.552018811340232
0.0005 6365.533990008893 1.000292425796656 1.559931668546919 287.9290649421959 4.538874663353321
0.0006000000000000001 6365.540938051406 1.000292191214531 1.559853076724439 287.8839026658633 4.525668900016798
0.0007 6365.547936135506 1.000291955155623 1.559774466184987 287.838415119208 4.512402155033203
0.0008 6365.554984273363 1.000291717623849 1.559695836804618 287.792602223143 4.499075064373539
0.0009000000000000001 6365.562082477223 1.000291478623149 1.559617188460026 287.7464638980495 4.485688266232206
0.001 6365.569230759415 1.000291238157481 1.559538521028505 287.7000000637998 4.472242400990373
0.0011 6365.576429132348 1.000290996230825 1.559459834387924 287.6532106397348 4.458738111165451
0.0012 6365.583677608512 1.000290752847182 1.559381128416777 287.6060955446745 4.445176041370742
0.0013 6365.590976200472 1.000290508010573 1.559302402994037 287.5586546969311 4.431556838274894
0.0014 6365.598324920876 1.00029026172504 1.559223657999373 287.5108880143079 4.417881150557796
0.0015 6365.605723782448 1.000290013994644 1.559144893313025 287.4627954140882 4.404149628862965
0.0016 6365.613172797992 1.000289764823466 1.559066108815743 287.4143768130529 4.390362925758277
0.0017 6365.620671980389 1.000289514215609 1.558987304388961 287.3656321274683 4.3765216956881
0.0018 6365.628221342597 1.000289262175195 1.558908479914577 287.3165612731162 4.362626594937069
0.0019 6365.635820897654 1.000289008706364 1.55882963527512 287.2671641652522 4.348678281573615
0.002 6365.643470658669 1.000288753813277 1.558750770353755 287.2174407186529 4.334677415418491
0.0021 6365.651170638833 1.000288497500115 1.558671885034092 287.1673908475867 4.320624657991428
0.0022 6365.65892085141 1.000288239771076 1.558592979200456 287.1170144658371 4.306520672472701
0.0023 6365.666721309741 1.000287980630381 1.558514052737622 287.0663114866851 4.292366123652947
0.0024 6365.674572027241 1.000287720082267 1.558435105531008 287.0152818229329 4.278161677894452
0.0025 6365.6824730174 1.000287458130991 1.558356137466594 286.963925386898 4.263908003084066
0.0026 6365.690424293785 1.000287194780827 1.558277148430935 286.9122420903954 4.249605768582764
0.0027 6365.698425870035 1.000286930036071 1.558198138311079 286.8602318447728 4.235255645189877
0.0028 6365.706477759862 1.000286663901034 1.558119106994787 286.8078945608994 4.220858305094056
0.0029 6365.714579977053 1.000286396380048 1.558040054370271 286.7552301491536 4.206414421824241
0.003 6365.722732535469 1.000286127477462 1.557960980326362 286.7022385194526 4.191924670211876
0.0031 6365.730935449042 1.000285857197644 1.557881884752452 286.6489195812291 4.177389726338443
0.0032 6365.739188731775 1.000285585544977 1.557802767538499 286.5952732434602 4.16281026749747
0.0033 6365.747492397748 1.000285312523866 1.557723628575014 286.5412994146385 4.148186972140338
0.0034 6365.755846461108 1.000285038138731 1.5576444677531 286.4869980027955 4.133520519836509
0.0035 6365.764250936076 1.000284762394011 1.557565284964415 286.4323689155075 4.118811591228816
0.0036 6365.772705836942 1.000284485294159 1.557486080101206 286.3774120598777 4.10406086798233
0.0037 6365.781211178068 1.000284206843651 1.557406853056217 286.3221273425601 4.089269032744307
0.0038 6365.789766973886 1.000283927046974 1.55732760372286 286.2665146697417 4.074436769092956
0.0039 6365.798373238898 1.000283645908637 1.557248331995042 286.2105739471662 4.059564761497231
0.004 6365.807029987674 1.000283363433162 1.557169037767239 286.1543050801159 4.044653695265506
0.0041 6365.815737234857 1.00028307962509 1.557089720934564 286.0977079734301 4.029704256503668
0.004200000000000001 6365.824494995155 1.000282794488978 1.55701038139259 286.0407825314927 4.014717132065297
0.0043 6365.833303283345 1.000282508029398 1.556931019037568 285.983528658256 3.99969300951118
0.0044 6365.842162114273 1.00028222025094 1.55685163376623 285.925946257223 3.984632577057872
0.004500000000000001 6365.851071502854 1.00028193115821 1.556772225475918 285.8680352314476 3.969536523530914
0.0046 6365.860031464068 1.000281640755828 1.556692794064542 285.8097954835579 3.954405538324205
0.0047 6365.869042012963 1.000281349048432 1.556613339430547 285.7512269157386 3.939240311348493
0.0048 6365.878103164654 1.000281056040674 1.556533861472967 285.6923294297488 3.924041532989116
0.0049 6365.887214934321 1.000280761737222 1.556454360091459 285.6331029269103 3.908809894056031
0.005 6365.896377337214 1.00028046614276 1.556374835186144 285.5735473081071 3.893546085736936
0.0051 6365.905590388643 1.000280169261987 1.556295286657809 285.5136624738215 3.878250799559426
0.005200000000000001 6365.914854103986 1.000279871099615 1.556215714407717 285.4534483240922 3.862924727333436
0.0053 6365.924168498686 1.000279571660375 1.556136118337791 285.3929047585383 3.847568561110379
0.0054 6365.933533588251 1.000279270949008 1.556056498350448 285.332031676371 3.832182993139182
0.005500000000000001 6365.942949388251 1.000278968970272 1.555976854348788 285.2708289763699 3.816768715813345
0.0056 6365.952415914322 1.000278665728941 1.555897186236314 285.2092965569067 3.801326421630007
0.0057 6365.961933182163 1.0002783612298 1.555817493917232 285.1474343159392 3.785856803141512
0.0058 6365.971501207535 1.00027805547765 1.555737777296304 285.0852421510234 3.770360552911448
0.0059 6365.981120006262 1.000277748477305 1.555658036278815 285.0227199592954 3.754838363463327
0.006 6365.990789594232 1.000277440233593 1.555578270770634 284.9598676374893 3.739290927238146
0.0061 6366.000509987393 1.000277130751358 1.555498480678237 284.8966850819432 3.72371893654898
0.006200000000000001 6366.010281201757 1.000276820035453 1.55541866590865 284.8331721885814 3.708123083529789
0.0063 6366.020103253393 1.000276508090749 1.555338826369479 284.7693288529439 3.692504060095909
0.0064 6366.029976158436 1.000276194922126 1.555258961968884 284.7051549701686 3.676862557892926
0.006500000000000001 6366.039899933077 1.000275880534481 1.55517907261561 284.6406504349974 3.661199268251424
0.0066 6366.049874593572 1.00027556493272 1.555099158219002 284.5758151417821 3.645514882141769
0.0067 6366.059900156232 1.000275248121764 1.555019218688975 284.5106489844901 3.629810090128896
0.0068 6366.069976637431 1.000274930106547 1.554939253935977 284.4451518566988 3.614085582324316
0.006900000000000001 6366.0801040536 1.000274610892014 1.554859263871085 284.3793236516011 3.598342048341026
0.007 6366.09028242123 1.000274290483123 1.554779248405892 284.3131642620059 3.582580177247064
0.0071 6366.100511756869 1.000273968884844 1.554699207452648 284.2466735803495 3.566800657521931
0.007200000000000001 6366.110792077125 1.000273646102159 1.554619140924101 284.1798514986898 3.551004177008839
0.0073 6366.121123398661 1.00027332214006 1.554539048733636 284.1126979087006 3.535191422867082
0.0074 6366.131505738202 1.000272997003553 1.554458930795205 284.0452127016891 3.519363081530055
0.007500000000000001 6366.141939112523 1.000272670697656 1.554378787023305 283.9773957686019 3.503519838660501
0.0076 6366.15242353846 1.000272343227395 1.554298617333035 283.9092470000072 3.487662379100346
0.0077 6366.162959032907 1.00027201459781 1.5542184216401 283.8407662861067 3.471791386827544
0.007800000000000001 6366.173545612808 1.000271684813952 1.554138199860717 283.7719535167474 3.455907544912971
0.007900000000000001 6366.184183295168 1.00027135388088 1.554057951911767 283.7028085814098 3.440011535471934
0.008 6366.194872097043 1.000271021803666 1.553977677710647 283.6333313692197 3.424104039621245
0.0081 6366.205612035547 1.000270688587393 1.553897377175339 283.5635217689422 3.408185737432321
0.008200000000000001 6366.216403127847 1.000270354237152 1.553817050224468 283.4933796689937 3.392257307888443
0.0083 6366.227245391164 1.000270018758046 1.553736696777178 283.4229049574359 3.376319428838072
0.008400000000000001 6366.238138842772 1.000269682155188 1.553656316753224 283.3520975219816 3.360372776950978
0.008500000000000001 6366.249083499999 1.000269344433701 1.553575910072923 283.2809572500067 3.344418027675785
0.0086 6366.260079380225 1.000269005598715 1.553495476657185 283.2094840285384 3.328455855192316
0.008700000000000001 6366.271126500883 1.000268665655373 1.553415016427517 283.1376777442609 3.312486932368073
0.008800000000000001 6366.28222487946 1.000268324608826 1.553334529306009 283.0655382835097 3.296511930712212
0.0089 6366.293374533491 1.000267982464234 1.553254015215308 282.9930655323068 3.280531520338803
0.009000000000000001 6366.304575480567 1.000267639226767 1.553173474078655 282.9202593763138 3.264546369911903
0.0091 6366.315827738326 1.000267294901601 1.553092905819916 282.8471197008788 3.248557146611679
0.0092 6366.32713132446 1.000266949493925 1.553012310363484 282.7736463910131 3.232564516085016
0.009300000000000001 6366.338486256706 1.000266603008934 1.552931687634355 282.6998393314087 3.216569142405363
0.0094 6366.349892552859 1.000266255451831 1.552851037558134 282.6256984064147 3.200571688023736
0.0095 6366.361350230756 1.000265906827829 1.552770360060982 282.5512235000846 3.184572813735226
0.009600000000000001 6366.372859308288 1.000265557142147 1.552689655069672 282.476414496129 3.168573178625224
0.0097 6366.384419803391 1.000265206400015 1.55260892251156 282.4012712779571 3.15257344003493
0.0098 6366.396031734054 1.000264854606667 1.55252816231455 282.325793728647 3.136574253511803
0.009900000000000001 6366.407695118311 1.000264501767347 1.552447374407181 282.2499817309812 3.120576272774051
0.01 6366.419409974244 1.000264147887307 1.552366558718553 282.173835167417 3.104580149661478
0.0101 6366.431176319982 1.000263792971803 1.552285715178356 282.0973539201162 3.088586534099022
0.0102 6366.442994173704 1.000263437026102 1.552204843716886 282.0205378709214 3.072596074049271
0.0103 6366.454863553632 1.000263080055476 1.552123944264989 281.9433869013914 3.056609415477527
0.0104 6366.466784478037 1.000262722065203 1.552043016754118 281.8659008927597 3.040627202301066
0.0105 6366.478756965234 1.00026236306057 1.551962061116329 281.7880797259821 3.024650076356995
0.0106 6366.490781033582 1.000262003046868 1.55188107728425 281.7099232817189 3.008678677356789
0.0107 6366.50285670149 1.000261642029395 1.551800065191096 281.631431440317 2.992713642841145
0.0108 6366.514983987407 1.000261280013458 1.55171902477067 281.5526040818571 2.976755608148299
0.0109 6366.527162909829 1.000260917004364 1.551637955957373 281.4734410861128 2.960805206364443
0.011 6366.539393487295 1.000260553007432 1.551556858686165 281.3939423325795 2.944863068288821
0.0111 6366.55167573839 1.000260188027984 1.551475732892632 281.3141077004633 2.928929822390632
0.0112 6366.564009681739 1.000259822071345 1.551394578512926 281.2339370686981 2.913006094772088
0.0113 6366.57639533601 1.00025945514285 1.551313395483798 281.1534303159341 2.897092509125787
0.0114 6366.588832719916 1.000259087247837 1.551232183742552 281.0725873205437 2.881189686695863
0.0115 6366.601321852211 1.000258718391648 1.551150943227142 280.9914079606273 2.865298246239353
0.0116 6366.613862751692 1.000258348579631 1.551069673876047 280.9098921140015 2.849418803984324
0.0117 6366.626455437195 1.000257977817139 1.550988375628374 280.8280396582348 2.833551973597469
0.0118 6366.639099927597 1.000257606109529 1.550907048423808 280.7458504706177 2.81769836613924
0.0119 6366.651796241818 1.000257233462163 1.550825692202613 280.6633244281805 2.801858590028458
0.012 6366.664544398818 1.000256859880406 1.550744306905625 280.5804614076818 2.786033251001458
0.0121 6366.677344417596 1.000256485369627 1.550662892474327 280.4972612856258 2.770222952077166
0.0122 6366.690196317189 1.0002561099352 1.550581448850729 280.4137239382684 2.754428293520119
0.0123 6366.703100116678 1.000255733582504 1.550499975977432 280.3298492415937 2.738649872798161
0.0124 6366.716055835177 1.000255356316918 1.550418473797663 280.2456370713493 2.722888284551608
0.0125 6366.729063491844 1.000254978143827 1.550336942255187 280.1610873030166 2.707144120550396
0.0126 6366.74212310587 1.000254599068619 1.55025538129439 280.0761998118468 2.6914179696637
0.0127 6366.755234696488 1.000254219096684 1.550173790860246 279.9909744728305 2.675710417817685
0.0128 6366.768398282965 1.000253838233416 1.550092170898278 279.9054111607282 2.660022047964527
0.0129 6366.781613884608 1.000253456484211 1.550010521354645 279.819509750046 2.644353440041875
0.013 6366.794881520758 1.000253073854469 1.549928842176019 279.7332701150712 2.628705170943443
0.0131 6366.808201210794 1.000252690349591 1.549847133309739 279.6466921298369 2.613077814476939
0.0132 6366.821572974131 1.00025230597498 1.549765394703669 279.5597756681458 2.597471941333067
0.0133 6366.834996830218 1.000251920736044 1.549683626306281 279.4725206035818 2.581888119052616
0.0134 6366.848472798541 1.000251534638189 1.549601828066602 279.3849268094863 2.566326911987489
0.0135 6366.862000898618 1.000251147686826 1.549519999934309 279.2969941589821 2.550788881270531
0.0136 6366.875581150005 1.000250759887365 1.5494381418596 279.2087225249674 2.535274584780343
0.0137 6366.889213572289 1.000250371245221 1.549356253793263 279.1201117801214 2.51978457710852
0.0138 6366.902898185092 1.000249981765808 1.549274335686674 279.031161796899 2.504319409525127
0.0139 6366.91663500807 1.000249591454541 1.549192387491797 278.9418724475421 2.488879629947597
0.014 6366.930424060912 1.000249200316837 1.549110409161185 278.8522436040738 2.473465782906834
0.0141 6366.944265363337 1.000248808358114 1.549028400647914 278.7622751383104 2.458078409516737
0.0142 6366.958158935099 1.000248415583789 1.548946361905738 278.6719669218554 2.44271804744095
0.0143 6366.972104795984 1.000248021999283 1.548864292888899 278.5813188261053 2.427385230862011
0.0144 6366.986102965807 1.000247627610015 1.548782193552248 278.4903307222556 2.412080490450785
0.0145 6367.000153464415 1.000247232421404 1.548700063851235 278.399002481301 2.396804353335238
0.0146 6367.014256311688 1.000246836438871 1.548617903741867 278.3073339740289 2.381557343068578
0.0147 6367.028411527534 1.000246439667835 1.548535713180718 278.215325071032 2.366339979600693
0.0148 6367.04261913189 1.000246042113716 1.548453492124948 278.1229756427136 2.351152779248928
0.0149 6367.056879144728 1.000245643781934 1.54837124053229 278.0302855592703 2.33599625466531
0.015 6367.071191586044 1.000245244677908 1.548288958361043 277.9372546907151 2.320870914810959
0.0151 6367.085556475863 1.000244844807056 1.548206645570125 277.8438829068899 2.305777264928812
0.0152 6367.099973834243 1.000244444174797 1.548124302118942 277.7501700774177 2.290715806507177
0.0153 6367.114443681267 1.000244042786546 1.548041927967555 277.6561160717619 2.27568703726088
0.0154 6367.128966037046 1.000243640647721 1.54795952307653 277.5617207592026 2.260691451099335
0.0155 6367.143540921718 1.000243237763735 1.547877087407041 277.4669840088308 2.24572953809792
0.0156 6367.158168355451 1.000242834140002 1.547794620920828 277.371905689566 2.230801784473461
0.0157 6367.172848358437 1.000242429781934 1.547712123580206 277.2764856701623 2.215908672558164
0.0158 6367.187580950894 1.000242024694942 1.54762959534799 277.1807238191903 2.201050680770229
0.0159 6367.202366153068 1.000241618884432 1.547547036187684 277.0846200050554 2.186228283590414
0.016 6367.217203985231 1.000241212355814 1.547464446063238 276.9881740959971 2.171441951536164
0.0161 6367.23209446768 1.00024080511449 1.547381824939235 276.8913859600779 2.156692151134351
0.0162 6367.247037620736 1.000240397165863 1.547299172780797 276.794255465218 2.141979344901603
0.0163 6367.262033464744 1.000239988515334 1.547216489553593 276.6967824791608 2.127303991314187
0.0164 6367.277082020077 1.0002395791683 1.547133775223929 276.5989668695014 2.112666544788186
0.0165 6367.292183307127 1.000239169130156 1.54705102975855 276.5008085036756 2.098067455653789
0.0166 6367.307337346313 1.000238758406294 1.546968253124857 276.4023072489653 2.083507170132644
0.0167 6367.322544158076 1.000238347002104 1.546885445290778 276.3034629725047 2.068986130315604
0.0168 6367.337803762881 1.000237934922971 1.546802606224792 276.2042755412743 2.054504774139112
0.0169 6367.353116181215 1.00023752217428 1.54671973589593 276.104744822101 2.04006353536289
0.017 6367.368481433586 1.00023710876141 1.546636834273803 276.0048706816932 2.02566284355314
0.0171 6367.383899540524 1.000236694689737 1.546553901328546 275.904652986594 2.011303124054147
0.0172 6367.399370522583 1.000236279964635 1.546470937030838 275.8040916032104 1.996984797971453
0.0173 6367.414894400335 1.000235864591472 1.546387941351973 275.7031863978194 1.982708282151966
0.0174 6367.430471194376 1.000235448575614 1.546304914263698 275.6019372365562 1.968473989161973
0.0175 6367.446100925319 1.000235031922423 1.546221855738406 275.5003439854257 1.954282327268917
0.0176 6367.4617836138 1.000234614637255 1.546138765748977 275.3984065103031 1.940133700421924
0.0177 6367.477519280472 1.000234196725464 1.546055644268824 275.2961246769331 1.926028508232732
0.0178 6367.493307946011 1.000233778192398 1.545972491271972 275.1934983509308 1.911967145957073
0.0179 6367.509149631109 1.000233359043401 1.545889306732908 275.0905273977927 1.897950004478067
0.018 6367.525044356477 1.000232939283815 1.545806090626711 274.9872116828973 1.883977470288411
0.0181 6367.540992142847 1.000232518918971 1.545722842929017 274.8835510714929 1.870049925471407
0.0182 6367.556993010967 1.000232097954202 1.545639563615923 274.7795454287156 1.85616774768643
0.0183 6367.573046981602 1.000231676394832 1.545556252664146 274.675194619589 1.842331310152386
0.0184 6367.589154075535 1.000231254246181 1.545472910050909 274.5704985090246 1.828540981631622
0.0185 6367.605314313568 1.000230831513563 1.545389535753942 274.4654569618095 1.814797126412724
0.0186 6367.621527716517 1.000230408202288 1.545306129751536 274.3600698426425 1.801100104299954
0.0187 6367.637794305216 1.000229984317659 1.545222692022518 274.2543370160978 1.787450270593816
0.0188 6367.654114100515 1.000229559864975 1.545139222546236 274.1482583466553 1.773847976080561
0.0189 6367.670487123278 1.000229134849528 1.545055721302551 274.0418336986944 1.760293567017483
0.019 6367.686913394386 1.000228709276604 1.544972188271868 273.935062936488 1.746787385118702
0.0191 6367.703392934735 1.000228283151484 1.544888623435113 273.8279459242202 1.733329767544378
0.0192 6367.719925765236 1.000227856479443 1.544805026773736 273.7204825259631 1.719921046885145
0.0193 6367.736511906813 1.000227429265749 1.544721398269705 273.6126726057176 1.70656155115515
0.0194 6367.753151380404 1.000227001515662 1.544637737905526 273.5045160273725 1.693251603775179
0.0195 6367.769844206963 1.000226573234441 1.544554045664186 273.3960126547394 1.679991523565813
0.0196 6367.786590407455 1.000226144427332 1.544470321529197 273.2871623515415 1.666781624735141
0.0197 6367.803390002859 1.000225715099579 1.544386565484635 273.1779649814133 1.653622216868404
0.0198 6367.820243014168 1.000225285256416 1.544302777515021 273.0684204079065 1.640513604918807
0.0199 6367.837149462385 1.000224854903073 1.544218957605434 272.9585284944959 1.627456089198757
0.02 6367.854109368526 1.000224424044771 1.544135105741424 272.8482891045795 1.61444996537084
0.0201 6367.87112275362 1.000223992686724 1.544051221909106 272.7377021014726 1.601495524438564
0.0202 6367.888189638705 1.000223560834141 1.543967306095018 272.6267673484193 1.588593052739653
0.0203 6367.905310044834 1.00022312849222 1.543883358286288 272.5154847085813 1.575742831937019
