#theta R n z T P_w
0 6365.5 1.000284374660958 1.560324351282931 288.15 2.557759254157811
0.0001 6365.506698014227 1.000284170506813 1.560243673614219 288.1064629075221 2.550597367267435
0.0002 6365.51344739671 1.000283964936309 1.560162982492267 288.0625919213848 2.543398377678939
0.0003 6365.520248156265 1.000283757952461 1.560082277814111 288.0183869842798 2.53616264637022
0.0004 6365.527100301775 1.000283549558301 1.560001559477227 287.9738480384616 2.52889053577536
0.0005 6365.534003842192 1.000283339756881 1.559920827379466 287.9289750257529 2.521582409759672
0.0006000000000000001 6365.540958786532 1.00028312855127 1.559840081419244 287.8837678875392 2.51423863359272
0.0007 6365.547965143881 1.000282915944556 1.559759321495422 287.8382265647741 2.506859573923183
0.0008 6365.555022923389 1.000282701939846 1.559678547507161 287.792350997974 2.499445598751685
0.0009000000000000001 6365.562132134272 1.000282486540263 1.559597759354231 287.7461411272296 2.491997077406428
0.001 6365.569292785815 1.000282269748948 1.559516956936782 287.6995968922 2.484514380515853
0.0011 6365.576504887365 1.000282051569064 1.559436140155382 287.6527182321246 2.476997879984071
0.0012 6365.583768448338 1.000281832003786 1.559355308910991 287.6055050858052 2.469447948961458
0.0013 6365.59108347821 1.000281611056312 1.559274463105146 287.557957391636 2.461864961822755
0.0014 6365.598449986525 1.000281388729854 1.55919360263963 287.5100750875853 2.454249294137504
0.0015 6365.605867982892 1.000281165027644 1.559112727416758 287.4618581112016 2.446601322644185
0.0016 6365.613337476982 1.00028093995293 1.559031837339263 287.413306399614 2.438921425223346
0.0017 6365.620858478533 1.000280713508978 1.55895093231025 287.3644198895375 2.431209980871584
0.0018 6365.628430997343 1.000280485699071 1.558870012233275 287.3151985172675 2.42346736967359
0.0019 6365.636055043276 1.000280256526511 1.558789077012302 287.2656422187032 2.415693972778764
0.002 6365.64373062626 1.000280025994615 1.558708126551723 287.2157509293123 2.407890172368476
0.0021 6365.651457756282 1.000279794106717 1.558627160756327 287.1655245841665 2.400056351634402
0.0022 6365.659236443395 1.00027956086617 1.558546179531282 287.1149631179295 2.392192894749366
0.0023 6365.667066697714 1.000279326276342 1.558465182782238 287.0640664648571 2.384300186839976
0.0024 6365.674948529416 1.00027909034062 1.558384170415179 287.0128345587972 2.376378613959216
0.0025 6365.682881948738 1.000278853062404 1.558303142336546 286.9612673332016 2.368428563060793
0.0026 6365.690866965982 1.000278614445114 1.558222098453128 286.9093647211201 2.360450421970683
0.0027 6365.698903591508 1.000278374492186 1.558141038672235 286.8571266552007 2.352444579359551
0.0028 6365.706991835737 1.000278133207071 1.558059962901411 286.8045530677067 2.344411424717816
0.0029 6365.715131709156 1.000277890593237 1.557978871048736 286.751643890488 2.33635134832345
0.003 6365.723323222306 1.00027764665417 1.557897763022596 286.6983990550101 2.328264741218757
0.0031 6365.731566385793 1.000277401393369 1.55781663873187 286.6448184923423 2.320151995180789
0.0032 6365.739861210282 1.000277154814351 1.557735498085749 286.5909021331698 2.312013502695314
0.0033 6365.748207706495 1.00027690692065 1.557654340993867 286.5366499077817 2.303849656927163
0.0034 6365.756605885219 1.000276657715812 1.557573167366218 286.4820617460767 2.29566085169323
0.0035 6365.765055757295 1.000276407203404 1.557491977113247 286.4271375775814 2.287447481437196
0.0036 6365.773557333626 1.000276155387004 1.557410770145756 286.3718773314321 2.279209941198882
0.0037 6365.782110625173 1.000275902270208 1.557329546374933 286.3162809363747 2.270948626586269
0.0038 6365.790715642956 1.000275647856628 1.55724830571237 286.260348320783 2.262663933750107
0.0039 6365.799372398054 1.000275392149889 1.557167048070065 286.2040794126464 2.2543562593541
0.004 6365.808080901603 1.000275135153634 1.55708577336037 286.1474741395817 2.246026000548569
0.0041 6365.816841164797 1.00027487687152 1.557004481496097 286.0905324288218 2.237673554940614
0.004200000000000001 6365.825653198887 1.000274617307218 1.556923172390329 286.0332542072327 2.229299320568598
0.0043 6365.834517015184 1.000274356464415 1.556841845956705 285.9756394013024 2.220903695872269
0.0044 6365.843432625054 1.000274094346814 1.556760502109077 285.917687937152 2.212487079666334
0.004500000000000001 6365.852400039918 1.00027383095813 1.556679140761863 285.8593997405304 2.20404987111143
0.0046 6365.861419271258 1.000273566302097 1.556597761829744 285.80077473682 2.195592469686804
0.0047 6365.87049033061 1.000273300382459 1.556516365227782 285.7418128510366 2.187115275162126
0.0048 6365.879613229565 1.000273033202977 1.55643495087154 285.6825140078294 2.178618687569298
0.0049 6365.888787979772 1.000272764767426 1.55635351867685 285.6228781314811 2.170103107174269
0.005 6365.898014592935 1.000272495079596 1.556272068560032 285.5629051459199 2.161568934450523
0.0051 6365.907293080815 1.000272224143289 1.556190600437675 285.5025949747013 2.153016570048365
0.005200000000000001 6365.916623455225 1.000271951962323 1.556109114226902 285.4419475410381 2.144446414770928
0.0053 6365.926005728034 1.00027167854053 1.556027609845108 285.3809627677764 2.135858869542631
0.0054 6365.935439911167 1.000271403881755 1.555946087210115 285.3196405774137 2.127254335383511
0.005500000000000001 6365.944926016602 1.000271127989858 1.555864546240167 285.2579808920867 2.118633213379397
0.0056 6365.954464056372 1.00027085086871 1.555782986853832 285.1959836335835 2.109995904655416
0.0057 6365.964054042563 1.000270572522199 1.555701408970072 285.1336487233374 2.101342810347037
0.0058 6365.973695987318 1.000270292954225 1.555619812508299 285.0709760824328 2.09267433157278
0.0059 6365.983389902828 1.0002700121687 1.555538197388281 285.0079656316174 2.083990869407748
0.006 6365.993135801342 1.000269730169551 1.555456563530159 284.944617291278 2.075292824852281
0.0061 6366.002933695158 1.000269446960719 1.555374910854413 284.8809309814704 2.06658059880799
0.006200000000000001 6366.012783596632 1.000269162546156 1.555293239282015 284.8169066218901 2.057854592045679
0.0063 6366.022685518167 1.000268876929827 1.555211548734256 284.7525441319129 2.049115205183007
0.0064 6366.032639472221 1.000268590115711 1.555129839132835 284.6878434305603 2.040362838651692
0.006500000000000001 6366.042645471303 1.0002683021078 1.55504811039987 284.6228044365283 2.031597892673595
0.0066 6366.052703527976 1.000268012910097 1.554966362457777 284.5574270681585 2.022820767228847
0.0067 6366.06281365485 1.00026772252662 1.554884595229427 284.4917112434731 2.014031862032783
0.0068 6366.072975864592 1.000267430961396 1.554802808638091 284.4256568801515 2.00523157650495
0.006900000000000001 6366.083190169916 1.000267138218468 1.554721002607383 284.3592638955478 1.996420309743729
0.007 6366.093456583588 1.000266844301888 1.554639177061313 284.2925322066793 1.987598460497038
0.0071 6366.103775118423 1.000266549215723 1.554557331924322 284.22546173025 1.978766427137796
0.007200000000000001 6366.11414578729 1.000266252964049 1.554475467121199 284.158052382615 1.96992460763163
0.0073 6366.124568603104 1.000265955550957 1.554393582577093 284.090304079822 1.961073399514767
0.0074 6366.135043578833 1.000265656980547 1.554311678217627 284.0222167375877 1.952213199863412
0.007500000000000001 6366.145570727491 1.000265357256934 1.554229753968712 283.9537902713095 1.94334440526786
0.0076 6366.156150062146 1.00026505638424 1.554147809756734 283.8850245960538 1.934467411803574
0.0077 6366.166781595911 1.000264754366602 1.554065845508404 283.8159196265796 1.925582615006934
0.007800000000000001 6366.17746534195 1.000264451208168 1.553983861150885 283.7464752773266 1.91669040984644
0.007900000000000001 6366.188201313475 1.000264146913095 1.553901856611673 283.6766914624153 1.907791190695531
0.008 6366.198989523745 1.000263841485555 1.553819831818666 283.6065680956589 1.898885351306978
0.0081 6366.20982998607 1.000263534929727 1.55373778670015 283.5361050905452 1.889973284783592
0.008200000000000001 6366.220722713806 1.000263227249804 1.55365572118481 283.4653023602608 1.881055383554254
0.0083 6366.231667720355 1.000262918449987 1.553573635201754 283.3941598176906 1.872132039347006
0.008400000000000001 6366.242665019171 1.00026260853449 1.553491528680391 283.3226773753885 1.863203643158542
0.008500000000000001 6366.253714623751 1.000262297507537 1.553409401550579 283.2508549456187 1.854270585232669
0.0086 6366.264816547639 1.000261985373363 1.553327253742602 283.178692440344 1.845333255032172
0.008700000000000001 6366.27597080443 1.000261672136211 1.553245085187061 283.1061897712078 1.836392041210063
0.008800000000000001 6366.287177407758 1.000261357800337 1.553162895814985 283.03334684957 1.827447331587508
0.0089 6366.29843637131 1.000261042370005 1.553080685557773 282.9601635864827 1.818499513124521
0.009000000000000001 6366.309747708816 1.000260725849492 1.55299845434725 282.886639892697 1.809548971894428
0.0091 6366.321111434051 1.000260408243082 1.552916202115566 282.8127756786679 1.800596093058403
0.0092 6366.332527560838 1.00026008955507 1.552833928795333 282.7385708545552 1.79164126083939
0.009300000000000001 6366.343996103041 1.000259769789762 1.552751634319505 282.6640253302347 1.782684858497535
0.0094 6366.355517074573 1.00025944895147 1.55266931862148 282.589139015275 1.773727268301463
0.0095 6366.367090489388 1.000259127044519 1.552586981634963 282.5139118189785 1.764768871507464
0.009600000000000001 6366.378716361489 1.000258804073243 1.552504623294138 282.4383436503225 1.755810048326771
0.0097 6366.390394704918 1.000258480041983 1.552422243533541 282.3624344180301 1.746851177908461
0.0098 6366.402125533766 1.000258154955091 1.552339842288074 282.286184030523 1.737892638308381
0.009900000000000001 6366.413908862163 1.000257828816929 1.552257419493067 282.209592395939 1.728934806465936
0.01 6366.425744704286 1.000257501631865 1.55217497508423 282.1326594221381 1.719978058179571
0.0101 6366.437633074354 1.000257173404278 1.552092508997658 282.0553850166965 1.711022768080984
0.0102 6366.449573986628 1.000256844138556 1.552010021169878 281.9777690869186 1.70206930961153
0.0103 6366.461567455412 1.000256513839094 1.551927511537729 281.8998115398189 1.693118054995333
0.0104 6366.473613495054 1.000256182510297 1.551844980038499 281.821512282146 1.684169375217297
0.0105 6366.485712119943 1.000255850156578 1.551762426609876 281.7428712203708 1.675223639997155
0.0106 6366.497863344509 1.000255516782357 1.551679851189904 281.663888260692 1.666281217765685
0.0107 6366.510067183225 1.000255182392065 1.551597253717041 281.5845633090365 1.657342475640398
0.0108 6366.522323650605 1.000254846990138 1.551514634130125 281.5048962710651 1.648407779402004
0.0109 6366.534632761206 1.000254510581022 1.551431992368399 281.4248870521609 1.63947749346905
0.011 6366.546994529623 1.000254173169169 1.551349328371477 281.3445355574526 1.630551980876648
0.0111 6366.559408970493 1.000253834759042 1.551266642079397 281.263841691797 1.62163160325073
0.0112 6366.571876098494 1.000253495355108 1.551183933432579 281.1828053597909 1.612716720785739
0.0113 6366.584395928343 1.000253154961844 1.551101202371801 281.1014264657709 1.603807692221148
0.0114 6366.596968474799 1.000252813583733 1.55101844883827 281.0197049138077 1.594904874817487
0.0115 6366.609593752659 1.000252471225266 1.550935672773557 280.9376406077175 1.586008624334464
0.0116 6366.62227177676 1.000252127890941 1.55085287411967 280.8552334510567 1.577119295007295
0.0117 6366.635002561979 1.000251783585263 1.550770052818974 280.7724833471333 1.568237239525114
0.0118 6366.647786123231 1.000251438312744 1.55068720881424 280.689390199001 1.559362809007615
0.0119 6366.660622475469 1.000251092077904 1.5506043420486 280.6059539094534 1.550496352981872
0.012 6366.673511633685 1.000250744885268 1.550521452465617 280.5221743810479 1.541638219362479
0.0121 6366.686453612911 1.000250396739368 1.550438540009228 280.4380515160755 1.532788754426172
0.0122 6366.699448428217 1.000250047644744 1.550355604623763 280.3535852165909 1.523948302792913
0.0123 6366.712496094708 1.00024969760594 1.550272646253948 280.2687753844006 1.515117207402736
0.0124 6366.725596627528 1.000249346627509 1.550189664844906 280.1836219210685 1.506295809494647
0.0125 6366.738750041859 1.000248994714009 1.550106660342097 280.0981247279163 1.497484448585071
0.0126 6366.751956352919 1.000248641870003 1.550023632691488 280.0122837060234 1.488683462446473
0.0127 6366.765215575963 1.000248288100061 1.54994058183933 279.9260987562383 1.479893187087368
0.0128 6366.778527726284 1.00024793340876 1.549857507732298 279.8395697791556 1.471113956728886
0.0129 6366.791892819209 1.000247577800681 1.549774410317471 279.7526966751392 1.462346103786348
0.013 6366.805310870102 1.000247221280412 1.549691289542312 279.6654793443344 1.453589958849782
0.0131 6366.818781894364 1.000246863852545 1.549608145354656 279.5779176866321 1.444845850659871
0.0132 6366.832305907429 1.00024650552168 1.549524977702773 279.4900116017105 1.436114106091818
0.0133 6366.845882924767 1.000246146292419 1.549441786535285 279.4017609890114 1.427395050132866
0.0134 6366.859512961886 1.000245786169372 1.549358571801217 279.3131657477401 1.4186890058624
0.0135 6366.873196034325 1.000245425157154 1.549275333449976 279.2242257768888 1.409996294434561
0.0136 6366.886932157659 1.000245063260382 1.549192071431369 279.1349409752137 1.401317235056379
0.0137 6366.900721347499 1.000244700483682 1.549108785695578 279.0453112412578 1.39265214497076
0.0138 6366.914563619487 1.000244336831683 1.549025476193183 278.9553364733337 1.384001339435618
0.0139 6366.928458989302 1.000243972309018 1.548942142875174 278.8650165695352 1.375365131706089
0.014 6366.942407472655 1.000243606920324 1.548858785692911 278.7743514277435 1.366743833016353
0.0141 6366.956409085289 1.000243240670247 1.548775404598105 278.6833409456207 1.35813775256053
0.0142 6366.970463842983 1.000242873563431 1.548691999542928 278.5919850206104 1.349547197474353
0.0143 6366.984571761546 1.00024250560453 1.54860857047988 278.5002835499494 1.340972472818156
0.0144 6366.998732856822 1.000242136798198 1.548525117361889 278.4082364306554 1.332413881557849
0.0145 6367.012947144686 1.000241767149096 1.548441640142255 278.3158435595395 1.323871724548313
0.0146 6367.027214641046 1.000241396661887 1.548358138774641 278.2231048332 1.31534630051536
0.0147 6367.041535361841 1.000241025341239 1.548274613213148 278.1300201480339 1.306837906039537
0.0148 6367.05590932304 1.000240653191823 1.548191063412211 278.0365894002374 1.298346835539038
0.0149 6367.070336540648 1.000240280218314 1.548107489326682 277.9428124857881 1.289873381251252
0.015 6367.084817030698 1.000239906425391 1.54802389091181 277.8486893004623 1.281417833217745
0.0151 6367.099350809254 1.000239531817737 1.547940268123176 277.7542197398474 1.272980479268904
0.0152 6367.113937892413 1.000239156400036 1.547856620916793 277.6594036993177 1.264561605005618
0.0153 6367.128578296298 1.000238780176977 1.547772949249059 277.5642410740646 1.256161493785937
0.0154 6367.143272037066 1.000238403153253 1.547689253076726 277.4687317590723 1.247780426707231
0.0155 6367.158019130904 1.000238025333557 1.54760553235694 277.372875649124 1.239418682591201
0.0156 6367.172819594026 1.000237646722589 1.547521787047277 277.2766726388317 1.231076537971161
0.0157 6367.187673442677 1.000237267325049 1.547438017105591 277.1801226226002 1.22275426707387
0.0158 6367.202580693131 1.000236887145639 1.54735422249023 277.0832254946453 1.214452141806252
0.0159 6367.217541361693 1.000236506189067 1.54727040315986 276.9859811489936 1.206170431740788
0.016 6367.232555464694 1.000236124460042 1.547186559073547 276.8883894794884 1.197909404101648
0.0161 6367.247623018494 1.000235741963273 1.547102690190721 276.7904503797898 1.189669323750544
0.0162 6367.262744039481 1.000235358703476 1.547018796471223 276.6921637433746 1.181450453172829
0.0163 6367.277918544073 1.000234974685365 1.546934877875255 276.5935294635245 1.173253052462848
0.0164 6367.293146548715 1.000234589913658 1.546850934363401 276.4945474333557 1.16507737931298
0.0165 6367.308428069878 1.000234204393076 1.546766965896597 276.3952175457952 1.156923688998483
0.0166 6367.323763124062 1.000233818128341 1.546682972436213 276.2955396935985 1.148792234366012
0.0167 6367.339151727793 1.000233431124175 1.546598953943937 276.1955137693438 1.140683265820428
0.0168 6367.354593897626 1.000233043385305 1.546514910381894 276.0951396654322 1.132597031312337
0.0169 6367.37008965014 1.000232654916459 1.546430841712531 275.9944172740928 1.124533776326362
0.017 6367.38563900194 1.000232265722364 1.546346747898705 275.8933464873897 1.116493743869631
0.0171 6367.40124196966 1.000231875807751 1.546262628903634 275.7919271972095 1.108477174459116
0.0172 6367.416898569959 1.000231485177352 1.54617848469091 275.6901592952671 1.100484306110636
0.0173 6367.432608819519 1.000231093835899 1.546094315224506 275.5880426731241 1.092515374329019
0.0174 6367.448372735052 1.000230701788128 1.546010120468762 275.4855772221644 1.084570612095274
0.0175 6367.46419033329 1.000230309038772 1.545925900388394 275.3827628336124 1.076650249857251
0.0176 6367.480061630995 1.000229915592568 1.545841654948497 275.2795993985332 1.068754515519166
0.0177 6367.495986644951 1.000229521454254 1.545757384114513 275.1760868078198 1.060883634430475
0.0178 6367.511965391966 1.000229126628568 1.545673087852282 275.072224952224 1.053037829378168
0.0179 6367.527997888874 1.000228731120247 1.545588766127986 274.9680137223198 1.045217320574361
0.018 6367.544084152532 1.000228334934031 1.545504418908218 274.8634530085395 1.037422325649529
0.0181 6367.560224199822 1.000227938074661 1.545420046159877 274.7585427011558 1.029653059641966
0.0182 6367.576418047647 1.000227540546877 1.545335647850297 274.6532826902934 1.021909734989726
0.0183 6367.592665712936 1.000227142355418 1.545251223947145 274.5476728659177 1.01419256152107
0.0184 6367.608967212638 1.000226743505026 1.545166774418441 274.4417131178519 1.006501746447348
0.0185 6367.625322563729 1.000226344000444 1.545082299232588 274.3354033357599 0.9988374943535462
0.0186 6367.641731783206 1.00022594384641 1.544997798358361 274.2287434091635 0.9912000071916807
0.0187 6367.658194888086 1.000225543047667 1.544913271764895 274.1217332274426 0.983589484273147
0.0188 6367.674711895411 1.000225141608956 1.544828719421658 274.0143726798295 0.9760061222609206
0.0189 6367.691282822245 1.000224739535017 1.544744141298529 273.9066616554086 0.9684501151624544
0.019 6367.707907685672 1.000224336830592 1.544659537365692 273.7986000431341 0.9609216543240743
0.0191 6367.724586502799 1.000223933500421 1.544574907593739 273.6901877318068 0.953420928422738
0.0192 6367.741319290753 1.000223529549244 1.544490251953607 273.581424610103 0.9459481234617741
0.0193 6367.758106066683 1.000223124981799 1.544405570416596 273.4723105665574 0.938503422763589
0.0194 6367.77494684776 1.000222719802827 1.544320862954342 273.3628454895569 0.9310870069634922
0.0195 6367.791841651173 1.000222314017065 1.544236129538848 273.2530292673758 0.9236990540065824
0.0196 6367.808790494132 1.00022190762925 1.544151370142482 273.142861788141 0.9163397391400815
0.0197 6367.825793393869 1.00022150064412 1.54406658473796 273.0323429398489 0.9090092349095555
0.0198 6367.842850367634 1.000221093066408 1.543981773298366 272.9214726103781 0.9017077111549696
0.0199 6367.859961432698 1.000220684900851 1.543896935797109 272.8102506874651 0.8944353350046682
0.02 6367.87712660635 1.000220276152181 1.543812072207964 272.6986770587281 0.8871922708727551
0.0201 6367.894345905899 1.000219866825132 1.543727182505072 272.5867516116554 0.879978680454399
0.0202 6367.911619348674 1.000219456924432 1.543642266662911 272.4744742336169 0.8727947227229536
0.0203 6367.928946952024 1.000219046454814 1.543557324656286 272.3618448118467 0.8656405539254457
