#theta R n z T P_w
0 6365.5 1.000318114443809 1.560324351282931 288.15 10.06051973302072
0.0001 6365.506698014227 1.000317826007487 1.560251659973167 288.1064629075221 10.03234964458524
0.0002 6365.513442312412 1.000317535909023 1.560178938183377 288.0626249693231 10.00405492283547
0.0003 6365.520232914176 1.000317244153952 1.560106185732831 288.0184860578578 9.975636782835728
0.0004 6365.52706983926 1.000316950747834 1.560033402441773 287.9740460448123 9.947096444010656
0.0005 6365.533953107519 1.000316655696259 1.559960588131317 287.9293048011281 9.918435130088207
0.0006000000000000001 6365.540882738924 1.000316359004842 1.559887742623568 287.8842621969956 9.889654069023246
0.0007 6365.547858753562 1.000316060679226 1.559814865741493 287.8389181018487 9.860754492920949
0.0008 6365.554881171632 1.000315760725079 1.559741957308987 287.7932723843941 9.831737637982494
0.0009000000000000001 6365.561950013449 1.000315459148098 1.559669017150886 287.7473249125818 9.802604744412774
0.001 6365.569065299441 1.000315155954004 1.559596045092969 287.7010755536347 9.773357056365439
0.0011 6365.576227050146 1.000314851148546 1.55952304096184 287.6545241740486 9.743995821868808
0.0012 6365.583435286219 1.000314544737496 1.559450004585146 287.6076706395742 9.714522292740345
0.0013 6365.590690028423 1.000314236726656 1.55937693579136 287.560514815253 9.684937724534409
0.0014 6365.597991297632 1.00031392712185 1.559303834409899 287.5130565653934 9.655243376452471
0.0015 6365.60533911483 1.00031361592893 1.559230700271133 287.4652957536063 9.625440511290135
0.0016 6365.612733501112 1.000313303153769 1.559157533206324 287.4172322427752 9.595530395343179
0.0017 6365.620174477682 1.00031298880227 1.559084333047687 287.3688658950686 9.565514298339277
0.0018 6365.627662065852 1.000312672880359 1.559011099628264 287.320196571963 9.535393493376702
0.0019 6365.635196287043 1.000312355393984 1.558937832782135 287.27122413422 9.505169256833391
0.002 6365.642777162783 1.00031203634912 1.558864532344258 287.2219484419091 9.474842868305101
0.0021 6365.650404714705 1.000311715751766 1.558791198150491 287.1723693544144 9.444415610532252
0.0022 6365.658078964551 1.000311393607945 1.558717830037654 287.1224867304162 9.41388876931201
0.0023 6365.665799934167 1.000311069923702 1.55864442784349 287.0723004279151 9.38326363343559
0.0024 6365.673567645503 1.000310744705108 1.55857099140664 287.021810304232 9.352541494610721
0.0025 6365.681382120616 1.000310417958256 1.558497520566696 286.9710162159957 9.32172364737677
0.0026 6365.689243381666 1.000310089689262 1.558424015164136 286.9199180191735 9.290811389044759
0.0027 6365.697151450916 1.000309759904265 1.55835047504045 286.8685155690463 9.259806019604859
0.0028 6365.705106350732 1.000309428609429 1.558276900037988 286.8168087202451 9.228708841669452
0.0029 6365.713108103581 1.000309095810936 1.558203290000072 286.7647973267211 9.197521160376674
0.003 6365.721156732034 1.000308761514995 1.558129644770911 286.7124812417809 9.16624428333294
0.0031 6365.72925225876 1.000308425727834 1.558055964195684 286.6598603180631 9.134879520519725
0.0032 6365.73739470653 1.000308088455704 1.557982248120515 286.6069344075562 9.103428184224981
0.0033 6365.745584098215 1.000307749704877 1.55790849639248 286.5537033616041 9.071891588967222
0.0034 6365.753820456785 1.000307409481648 1.55783470885951 286.5001670309006 9.04027105141239
0.0035 6365.762103805307 1.000307067792332 1.557760885370538 286.4463252655067 9.00856789030456
0.0036 6365.770434166949 1.000306724643266 1.557687025775428 286.3921779148335 8.976783426375512
0.0037 6365.778811564974 1.000306380040806 1.557613129925 286.337724827671 8.944918982281974
0.0038 6365.787236022742 1.00030603399133 1.557539197671012 286.2829658521767 8.912975882518314
0.0039 6365.79570756371 1.000305686501237 1.557465228866122 286.2279008358877 8.880955453342951
0.004 6365.80422621143 1.000305337576945 1.557391223364035 286.1725296257081 8.848859022690833
0.0041 6365.81279198955 1.000304987224892 1.557317181019252 286.1168520679274 8.81668792010298
0.004200000000000001 6365.821404921811 1.000304635451535 1.557243101687359 286.0608680082263 8.784443476648887
0.0043 6365.83006503205 1.000304282263353 1.55716898522487 286.0045772916764 8.752127024845406
0.0044 6365.838772344195 1.000303927666843 1.557094831489172 285.9479797627345 8.719739898572117
0.004500000000000001 6365.847526882267 1.000303571668519 1.5570206403387 285.8910752652663 8.687283433003488
0.0046 6365.856328670379 1.000303214274917 1.556946411632817 285.8338636425345 8.65475896452058
0.0047 6365.865177732737 1.000302855492589 1.556872145231798 285.7763447372107 8.622167830636139
0.0048 6365.874074093635 1.000302495328107 1.556797840996942 285.7185183913751 8.589511369912822
0.0049 6365.88301777746 1.000302133788062 1.556723498790448 285.6603844465111 8.556790921878017
0.005 6365.892008808687 1.000301770879059 1.556649118475541 285.6019427435343 8.524007826958526
0.0051 6365.90104721188 1.000301406607726 1.55657469991632 285.5431931227812 8.491163426391736
0.005200000000000001 6365.910133011691 1.000301040980703 1.556500242977954 285.4841354240087 8.45825906214348
0.0053 6365.919266232862 1.000300674004652 1.55642574752651 285.4247694863947 8.425296076825768
0.0054 6365.928446900221 1.000300305686249 1.556351213429006 285.365095148561 8.392275813627617
0.005500000000000001 6365.937675038681 1.000299936032186 1.556276640553525 285.3051122485739 8.35919961623248
0.0056 6365.946950673241 1.000299565049176 1.556202028769032 285.2448206239322 8.326068828729202
0.0057 6365.956273828989 1.000299192743944 1.556127377945462 285.1842201115732 8.292884795532723
0.0058 6365.965644531093 1.000298819123231 1.556052687953795 285.1233105478958 8.259648861314396
0.0059 6365.975062804809 1.000298444193797 1.55597795866591 285.0620917687437 8.226362370909509
0.006 6365.984528675473 1.000298067962416 1.555903189954721 285.0005636094282 8.193026669247418
0.0061 6365.994042168505 1.000297690435875 1.555828381694107 284.938725904717 8.159643101262237
0.006200000000000001 6366.003603309409 1.000297311620979 1.555753533758895 284.8765784888395 8.126213011813219
0.0063 6366.01321212377 1.000296931524547 1.555678646024928 284.8141211954934 8.092737745605064
0.0064 6366.022868637252 1.000296550153413 1.555603718369018 284.7513538578618 8.059218647114458
0.006500000000000001 6366.032572875601 1.000296167514424 1.555528750668941 284.6882763085958 8.025657060497583
0.0066 6366.042324864642 1.000295783614441 1.555453742803539 284.6248883798265 7.992054329513517
0.0067 6366.052124630281 1.000295398460342 1.555378694652525 284.5611899031763 7.958411797447491
0.0068 6366.061972198499 1.000295012059015 1.555303606096679 284.4971807097535 7.924730807024743
0.006900000000000001 6366.071867595359 1.000294624417364 1.555228477017748 284.4328606301636 7.891012700333772
0.007 6366.081810846998 1.000294235542302 1.555153307298512 284.36822949451 7.857258818743298
0.0071 6366.091801979632 1.000293845440761 1.555078096822625 284.3032871323934 7.823470502819311
0.007200000000000001 6366.10184101955 1.00029345411968 1.555002845474888 284.2380333729237 7.789649092248277
0.0073 6366.11192799312 1.000293061586013 1.554927553141007 284.1724680447204 7.755795925754175
0.0074 6366.122062926782 1.000292667846727 1.554852219707699 284.106590975918 7.721912341018632
0.007500000000000001 6366.132245847051 1.000292272908799 1.554776845062674 284.0404019941665 7.687999674598072
0.0076 6366.142476780517 1.000291876779217 1.554701429094679 283.9739009266426 7.654059261846927
0.0077 6366.152755753839 1.000291479464984 1.554625971693401 283.9070876000445 7.620092436831828
0.007800000000000001 6366.163082793752 1.000291080973111 1.554550472749582 283.8399618406091 7.586100532257902
0.007900000000000001 6366.173457927062 1.00029068131062 1.554474932154947 283.7725234740946 7.552084879377111
0.008 6366.183881180646 1.000290280484544 1.554399349802228 283.7047723258037 7.518046807917645
0.0081 6366.194352581448 1.000289878501927 1.55432372558516 283.6367082205901 7.483987646004308
0.008200000000000001 6366.204872156484 1.000289475369823 1.554248059398478 283.5683309828522 7.449908720073061
0.0083 6366.21543993284 1.000289071095296 1.554172351137932 283.4996404365392 7.41581135479163
0.008400000000000001 6366.226055937671 1.000288665685418 1.554096600700293 283.4306364051389 7.381696872971415
0.008500000000000001 6366.236720198197 1.000288259147272 1.554020807983321 283.3613187117197 7.347566595505835
0.0086 6366.247432741707 1.00028785148795 1.553944972885833 283.2916871789065 7.313421841276505
0.008700000000000001 6366.258193595556 1.000287442714551 1.553869095307569 283.2217416288867 7.279263927074238
0.008800000000000001 6366.269002787165 1.000287032834186 1.553793175149372 283.1514818834279 7.245094167525894
0.0089 6366.27986034402 1.00028662185397 1.553717212313045 283.0809077638722 7.21091387500974
0.009000000000000001 6366.290766293671 1.00028620978103 1.553641206701435 283.0100190911361 7.176724359573916
0.0091 6366.301720663734 1.000285796622498 1.5535651582184 282.9388156857279 7.142526928863556
0.0092 6366.312723481886 1.000285382385516 1.553489066768795 282.8672973677425 7.108322888036626
0.009300000000000001 6366.323774775868 1.00028496707723 1.55341293225851 282.7954639568605 7.074113539682813
0.0094 6366.334874573481 1.000284550704797 1.553336754594495 282.7233152723728 7.039900183753816
0.0095 6366.346022902592 1.000284133275377 1.553260533684604 282.6508511331502 7.005684117468489
0.009600000000000001 6366.357219791124 1.000283714796138 1.553184269437833 282.5780713576913 6.9714666352546
0.0097 6366.368465267061 1.000283295274256 1.553107961764133 282.5049757641044 6.937249028659878
0.0098 6366.379759358449 1.00028287471691 1.553031610574504 282.431564170084 6.90303258626074
0.009900000000000001 6366.391102093388 1.000282453131286 1.552955215780967 282.3578363929759 6.868818593612601
0.01 6366.402493500043 1.000282030524577 1.552878777296525 282.2837922497237 6.834608333145141
0.0101 6366.41393360663 1.000281606903978 1.552802295035273 282.2094315569046 6.800403084099148
0.0102 6366.425422441425 1.000281182276691 1.552725768912264 282.1347541307354 6.766204122449689
0.0103 6366.436960032761 1.000280756649922 1.552649198843649 282.0597597870541 6.732012720818711
0.0104 6366.448546409023 1.000280330030883 1.552572584746513 281.9844483413502 6.697830148409542
0.0105 6366.460181598654 1.000279902426787 1.552495926539088 281.9088196087467 6.663657670919992
0.0106 6366.471865630151 1.000279473844855 1.552419224140493 281.8328734040177 6.62949655047186
0.0107 6366.483598532063 1.000279044292306 1.552342477470971 281.7566095415885 6.5953480455326
0.0108 6366.495380332994 1.000278613776368 1.552265686451782 281.6800278355416 6.561213410839909
0.0109 6366.507211061597 1.000278182304269 1.552188851005189 281.6031280996166 6.527093897323921
0.011 6366.519090746582 1.00027774988324 1.552111971054485 281.525910147216 6.492990752032327
0.0111 6366.531019416705 1.000277316520517 1.55203504652399 281.4483737914173 6.458905218058331
0.0112 6366.542997100775 1.000276882223333 1.551958077339078 281.3705188449611 6.424838534458446
0.0113 6366.55502382765 1.000276446998929 1.55188106342612 281.2923451202745 6.3907919361862
0.0114 6366.567099626237 1.000276010854544 1.551804004712545 281.2138524294595 6.356766654010529
0.0115 6366.579224525491 1.000275573797419 1.551726901126812 281.1350405843108 6.322763914447392
0.0116 6366.591398554415 1.000275135834799 1.551649752598373 281.0559093963037 6.288784939678865
0.0117 6366.60362174206 1.000274696973925 1.551572559057746 280.9764586766122 6.254830947485318
0.0118 6366.615894117522 1.000274257222044 1.551495320436446 280.8966882361086 6.220903151170234
0.0119 6366.628215709945 1.000273816586399 1.551418036667059 280.816597885358 6.187002759482891
0.012 6366.640586548515 1.000273375074235 1.551340707683182 280.7361874346533 6.1531309765589
0.0121 6366.653006662465 1.000272932692799 1.551263333419442 280.6554566939743 6.119289001828531
0.0122 6366.665476081072 1.000272489449334 1.55118591381147 280.5744054730288 6.085478029960406
0.0123 6366.677994833655 1.000272045351084 1.551108448795959 280.4930335812409 6.051699250783028
0.0124 6366.690562949575 1.000271600405293 1.551030938310643 280.4113408277625 6.01795384921663
0.0125 6366.703180458237 1.000271154619202 1.550953382294249 280.3293270214621 5.984243005195567
0.0126 6366.715847389083 1.000270708000052 1.550875780686548 280.2469919709596 5.950567893610597
0.0127 6366.728563771602 1.000270260555082 1.550798133428344 280.1643354845854 5.916929684219936
0.0128 6366.74132963532 1.000269812291529 1.550720440461458 280.0813573704216 5.883329541594688
0.0129 6366.754145009799 1.000269363216627 1.550642701728774 279.9980574363079 5.849768625049952
0.013 6366.767009924644 1.000268913337609 1.550564917174149 279.914435489812 5.816248088562135
0.0131 6366.779924409498 1.000268462661704 1.550487086742507 279.8304913382652 5.782769080712926
0.0132 6366.792888494037 1.00026801119614 1.550409210379784 279.7462247887564 5.749332744616941
0.0133 6366.80590220798 1.000267558948138 1.550331288032949 279.6616356481321 5.715940217852217
0.0134 6366.818965581077 1.00026710592492 1.550253319649982 279.5767237230024 5.682592632393511
0.0135 6366.832078643114 1.0002666521337 1.550175305179918 279.4914888197585 5.649291114550609
0.0136 6366.845241423915 1.000266197581692 1.550097244572804 279.4059307445553 5.61603678489315
0.0137 6366.858453953333 1.000265742276102 1.550019137779688 279.3200493033349 5.582830758192131
0.0138 6366.871716261261 1.000265286224133 1.549940984752677 279.2338443018028 5.549674143343474
0.0139 6366.885028377619 1.000264829432985 1.549862785444857 279.1473155454754 5.516568043319459
0.014 6366.898390332363 1.000264371909851 1.549784539810368 279.0604628396385 5.483513555086445
0.0141 6366.911802155478 1.000263913661917 1.549706247804383 278.9732859893946 5.450511769557081
0.0142 6366.925263876981 1.000263454696368 1.549627909383049 278.8857847996218 5.417563771509186
0.0143 6366.93877552692 1.000262995020378 1.54954952450358 278.7979590750205 5.384670639538773
0.0144 6366.952337135371 1.000262534641118 1.549471093124184 278.7098086200903 5.351833445986697
0.0145 6366.96594873244 1.000262073565754 1.54939261520407 278.6213332391416 5.319053256879235
0.0146 6366.97961034826 1.000261611801441 1.549314090703516 278.5325327363074 5.286331131869073
0.0147 6366.993322012994 1.00026114935533 1.549235519583759 278.4434069155376 5.25366812417025
0.0148 6367.007083756831 1.000260686234565 1.549156901807092 278.3539555805986 5.22106528049586
0.0149 6367.020895609985 1.000260222446282 1.549078237336775 278.2641785350974 5.188523641004894
0.015 6367.034757602697 1.00025975799761 1.548999526137101 278.1740755824693 5.156044239236619
0.0151 6367.048669765234 1.000259292895667 1.548920768173423 278.0836465259785 5.123628102049918
0.0152 6367.062632127885 1.000258827147568 1.548841963412011 277.992891168747 5.091276249573719
0.0153 6367.076644720966 1.000258360760416 1.548763111820213 277.9018093137196 5.058989695134695
0.0154 6367.090707574813 1.000257893741306 1.548684213366373 277.810400763717 5.026769445217143
0.0155 6367.104820719786 1.000257426097325 1.548605268019792 277.7186653213884 4.994616499387737
0.0156 6367.11898418627 1.00025695783555 1.54852627575083 277.6266027892469 4.962531850250208
0.0157 6367.133198004664 1.000256488963049 1.548447236530824 277.5342129696818 4.930516483392057
0.0158 6367.147462205395 1.00025601948688 1.548368150332121 277.4414956649342 4.898571377319572
0.0159 6367.161776818905 1.000255549414091 1.548289017128059 277.3484506771155 4.866697503407896
0.016 6367.17614187566 1.000255078751722 1.548209836892973 277.2550778082126 4.834895825847516
0.0161 6367.190557406139 1.000254607506799 1.548130609602203 277.1613768600945 4.803167301591321
0.0162 6367.205023440845 1.00025413568634 1.548051335232073 277.0673476345058 4.771512880298276
0.0163 6367.219540010295 1.000253663297352 1.547972013759904 276.9729899330849 4.739933504285726
0.0164 6367.234107145023 1.000253190346829 1.547892645163985 276.8783035573518 4.708430108472332
0.0165 6367.248724875581 1.000252716841756 1.547813229423659 276.7832883087261 4.677003620331591
0.0166 6367.263393232533 1.000252242789105 1.547733766519174 276.6879439885328 4.645654959841917
0.0167 6367.278112246465 1.000251768195836 1.547654256431793 276.5922703979785 4.614385039427733
0.0168 6367.292881947969 1.000251293068899 1.547574699143805 276.4962673381991 4.583194763924484
0.0169 6367.307702367657 1.000250817415229 1.547495094638405 276.3999346102299 4.552085030519061
0.017 6367.322573536151 1.00025034124175 1.547415442899828 276.3032720150176 4.521056728704504
0.0171 6367.337495484087 1.000249864555372 1.547335743913255 276.2062793534318 4.49011074023528
0.0172 6367.352468242113 1.000249387362995 1.54725599766484 276.1089564262655 4.459247939079385
0.0173 6367.367491840886 1.000248909671502 1.547176204141714 276.0113030342408 4.428469191373034
0.0174 6367.382566311077 1.000248431487764 1.547096363331989 275.9133189779967 4.397775355370448
0.0175 6367.397691683365 1.00024795281864 1.54701647522473 275.8150040581253 4.367167281409197
0.0176 6367.412867988439 1.000247473670972 1.54693653980999 275.7163580751475 4.336645811857624
0.0177 6367.428095256995 1.000246994051591 1.54685655707874 275.617380829531 4.30621178107596
0.0178 6367.443373519741 1.000246513967311 1.546776527022953 275.5180721216847 4.275866015370784
0.0179 6367.45870280739 1.000246033424932 1.546696449635554 275.4184317519638 4.245609332953866
0.018 6367.474083150664 1.000245552431241 1.54661632491038 275.3184595206825 4.215442543903477
0.0181 6367.489514580288 1.000245070993008 1.546536152842298 275.2181552281253 4.185366450126323
0.0182 6367.504997126996 1.000244589116988 1.546455933427057 275.1175186745235 4.155381845309566
0.0183 6367.520530821526 1.000244106809921 1.546375666661419 275.0165496600788 4.12548951488784
0.0184 6367.536115694621 1.000243624078531 1.546295352543002 274.9152479849635 4.095690236003841
0.0185 6367.551751777028 1.000243140929527 1.546214991070435 274.8136134493201 4.065984777469681
0.0186 6367.567439099497 1.0002426573696 1.546134582243272 274.7116458532677 4.036373899730748
0.0187 6367.583177692782 1.000242173405427 1.546054126061994 274.6093449969193 4.00685835483367
0.0188 6367.598967587636 1.000241689043666 1.545973622528011 274.5067106803643 3.977438886384749
0.0189 6367.614808814818 1.000241204290959 1.545893071643703 274.4037427036805 3.948116229517766
0.019 6367.630701405085 1.000240719153933 1.545812473412335 274.3004408669452 3.918891110862457
0.0191 6367.646645389197 1.000240233639195 1.545731827838102 274.1968049702185 3.889764248505384
0.0192 6367.662640797912 1.000239747753336 1.54565113492613 274.092834813572 3.86073635196496
0.0193 6367.678687661988 1.00023926150293 1.545570394682473 273.9885301970775 3.831808122155527
0.0194 6367.69478601218 1.000238774894532 1.545489607114092 273.8838909208301 3.802980251362111
0.0195 6367.710935879244 1.000238287934678 1.545408772228849 273.7789167849136 3.774253423199618
0.0196 6367.727137293933 1.000237800629889 1.545327890035545 273.6736075894349 3.745628312592458
0.0197 6367.743390286995 1.000237312986666 1.545246960543838 273.5679631345309 3.717105585746649
0.0198 6367.759694889176 1.000236825011489 1.545165983764363 273.461983220356 3.688685900117953
0.0199 6367.776051131218 1.000236336710823 1.545084959708568 273.3556676470824 3.660369904384106
0.02 6367.792459043857 1.000235848091113 1.545003888388872 273.2490162149296 3.632158238425688
0.0201 6367.808918657826 1.000235359158783 1.544922769818523 273.1420287241289 3.604051533290465
0.0202 6367.825430003851 1.000234869920239 1.544841604011729 273.0347049749706 3.576050411180508
0.0203 6367.841993112649 1.000234380381868 1.544760390983511 272.9270447677808 3.548155485421306
