#theta R n z T P_w
0 6365.5 1.000336517961727 1.560324351282931 288.15 14.15293453967322
0.0001 6365.506698014227 1.000336183553309 1.560256018492708 288.1064629075221 14.11330543221314
0.0002 6365.513439537679 1.000335847402516 1.560187645901589 288.0626430050864 14.07351734914904
0.0003 6365.520224595894 1.000335509515794 1.560119233297937 288.0185401266862 14.03357184261203
0.0004 6365.52705321455 1.000335169899615 1.560050780471276 287.9741541054276 13.99347047001386
0.0005 6365.533925419455 1.000334828560484 1.559982287212191 287.9294847735422 13.95321479397567
0.0006000000000000001 6365.540841236558 1.000334485504933 1.559913753312414 287.8845319623746 13.91280638223509
0.0007 6365.547800691938 1.000334140739527 1.559845178564583 287.8392955024004 13.87224680757953
0.0008 6365.55480381181 1.000333794270855 1.559776562762635 287.7937752232382 13.83153764777369
0.0009000000000000001 6365.561850622517 1.00033344610554 1.559707905701505 287.7479709536373 13.79068048546542
0.001 6365.568941150541 1.000333096250229 1.559639207177186 287.701882521484 13.74967690810728
0.0011 6365.57607542249 1.000332744711603 1.559570466986762 287.6555097538134 13.70852850788278
0.0012 6365.583253465105 1.000332391496366 1.559501684928473 287.6088524768151 13.66723688162704
0.0013 6365.590475305258 1.000332036611253 1.559432860801596 287.5619105158215 13.6258036307313
0.0014 6365.597740969948 1.000331680063027 1.559363994406534 287.5146836953376 13.58423036108372
0.0015 6365.605050486303 1.000331321858479 1.559295085544751 287.4671718390285 13.54251868297317
0.0016 6365.612403881581 1.000330962004425 1.559226134018855 287.4193747697203 13.50067021100314
0.0017 6365.619801183166 1.000330600507711 1.559157139632503 287.371292309423 13.45868656402604
0.0018 6365.627242418566 1.000330237375211 1.559088102190473 287.322924279319 13.41656936504599
0.0019 6365.63472761542 1.000329872613822 1.559019021498639 287.2742704997689 13.37432024113683
0.002 6365.642256801489 1.000329506230471 1.558949897364008 287.2253307903237 13.33194082336485
0.0021 6365.649830004658 1.00032913823211 1.558880729594663 287.1761049697242 13.28943274670095
0.0022 6365.657447252937 1.000328768625719 1.558811517999825 287.1265928559072 13.24679764993751
0.0023 6365.665108574461 1.000328397418302 1.558742262389786 287.0767942660058 13.2040371755998
0.0024 6365.672813997483 1.00032802461689 1.558672962575995 287.0267090163605 13.1611529698673
0.0025 6365.680563550381 1.00032765022854 1.558603618370973 286.976336922526 13.11814668248952
0.0026 6365.688357261652 1.000327274260334 1.558534229588402 286.9256777992645 13.07501996669128
0.0027 6365.696195159914 1.000326896719378 1.558464796043026 286.8747314605579 13.03177447909306
0.0028 6365.704077273906 1.000326517612805 1.55839531755079 286.8234977196138 12.98841187962572
0.0029 6365.712003632483 1.000326136947772 1.558325793928712 286.7719763888593 12.94493383143499
0.003 6365.719974264622 1.000325754731461 1.558256224994856 286.7201672799591 12.90134200080571
0.0031 6365.727989199413 1.000325370971077 1.55818661056864 286.6680702038151 12.8576380570706
0.0032 6365.736048466066 1.00032498567385 1.558116950470378 286.6156849705725 12.81382367252376
0.0033 6365.744152093906 1.000324598847034 1.558047244521635 286.563011389614 12.76990052232408
0.0034 6365.752300112372 1.000324210497907 1.557977492545099 286.5100492695832 12.72587028442286
0.0035 6365.760492551019 1.00032382063377 1.557907694364578 286.456798418379 12.68173463946658
0.0036 6365.768729439515 1.000323429261946 1.557837849805032 286.4032586431493 12.63749527069938
0.0037 6365.777010807644 1.000323036389782 1.557767958692552 286.3494297503152 12.59315386388978
0.0038 6365.785336685298 1.000322642024649 1.557698020854384 286.2953115455642 12.54871210723264
0.0039 6365.793707102482 1.000322246173939 1.557628036118926 286.2409038338691 12.50417169127021
0.004 6365.802122089314 1.000321848845065 1.55755800431572 286.1862064194573 12.45953430877427
0.0041 6365.810581676022 1.000321450045464 1.557487925275463 286.131219105859 12.41480165469089
0.004200000000000001 6365.819085892939 1.000321049782596 1.557417798829974 286.0759416958948 12.3699754260364
0.0043 6365.827634770514 1.000320648063939 1.557347624812271 286.0203739916582 12.32505732178867
0.0044 6365.836228339298 1.000320244896994 1.557277403056526 285.9645157945628 12.28004904283061
0.004500000000000001 6365.844866629952 1.000319840289283 1.557207133398077 285.9083669053128 12.23495229183136
0.0046 6365.853549673243 1.00031943424835 1.557136815673377 285.851927123921 12.18976877316534
0.0047 6365.862277500044 1.000319026781757 1.557066449720119 285.795196249714 12.14450019282163
0.0048 6365.871050141332 1.000318617897089 1.556996035377112 285.7381740813388 12.09914825831295
0.0049 6365.879867628191 1.000318207601948 1.556925572484361 285.6808604167567 12.05371467857512
0.005 6365.888729991807 1.000317795903958 1.556855060883038 285.6232550532549 12.00820116388041
0.0051 6365.897637263468 1.000317382810763 1.556784500415447 285.5653577874585 11.96260942575056
0.005200000000000001 6365.906589474564 1.000316968330023 1.556713890925208 285.5071684153307 11.91694117686022
0.0053 6365.91558665659 1.000316552469422 1.556643232256946 285.4486867321665 11.87119813093564
0.0054 6365.924628841137 1.000316135236657 1.556572524256624 285.3899125326105 11.82538200267172
0.005500000000000001 6365.933716059899 1.000315716639449 1.556501766771273 285.3308456106573 11.77949450763489
0.0056 6365.942848344666 1.000315296685534 1.556430959649171 285.2714857596687 11.73353736217959
0.0057 6365.952025727332 1.000314875382666 1.556360102739776 285.2118327723446 11.68751228332796
0.0058 6365.961248239882 1.000314452738618 1.556289195893742 285.1518864407698 11.64142098870883
0.0059 6365.970515914402 1.00031402876118 1.556218238962924 285.0916465563849 11.59526519643708
0.006 6365.979828783074 1.000313603458159 1.556147231800364 285.0311129100218 11.54904662504301
0.0061 6365.989186878173 1.000313176837379 1.556076174260293 284.9702852918734 11.50276699335158
0.006200000000000001 6365.998590232072 1.000312748906681 1.556005066198197 284.9091634915302 11.4564280204113
0.0063 6366.008038877234 1.000312319673921 1.555933907470695 284.8477472979793 11.41003142539574
0.0064 6366.017532846218 1.000311889146973 1.555862697935664 284.7860364995812 11.36357892748715
0.006500000000000001 6366.027072171674 1.000311457333725 1.555791437452185 284.7240308841173 11.31707224581358
0.0066 6366.036656886345 1.000311024242084 1.555720125880513 284.6617302387598 11.27051309932783
0.0067 6366.046287023062 1.000310589879967 1.555648763082164 284.5991343500958 11.22390320672629
0.0068 6366.055962614749 1.000310154255311 1.555577348919873 284.5362430041331 11.17724428635439
0.006900000000000001 6366.065683694417 1.000309717376065 1.555505883257516 284.4730559862882 11.13053805609866
0.007 6366.075450295169 1.000309279250192 1.555434365960294 284.4095730814041 11.08378623330082
0.0071 6366.08526245019 1.000308839885673 1.555362796894551 284.3457940737625 11.03699053466711
0.007200000000000001 6366.095120192757 1.000308399290498 1.555291175927929 284.2817187470772 10.99015267616457
0.0073 6366.105023556232 1.000307957472674 1.555219502929187 284.2173468844948 10.94327437292166
0.0074 6366.11497257406 1.00030751444022 1.555147777768444 284.1526782686118 10.89635733914171
0.007500000000000001 6366.124967279774 1.000307070201168 1.555076000316944 284.0877126814693 10.84940328799905
0.0076 6366.135007706988 1.000306624763563 1.55500417044724 284.0224499045761 10.8024139315565
0.0077 6366.145093889401 1.000306178135464 1.554932288033065 283.9568897188914 10.75539098065283
0.007800000000000001 6366.155225860794 1.00030573032494 1.554860352949412 283.8910319048363 10.70833614481165
0.007900000000000001 6366.16540365503 1.000305281340073 1.554788365072503 283.8248762423058 10.66125113215009
0.008 6366.17562730605 1.000304831188957 1.554716324279817 283.7584225106747 10.61413764928325
0.0081 6366.185896847877 1.000304379879695 1.554644230450089 283.6916704887975 10.56699740122428
0.008200000000000001 6366.196212314614 1.000303927420405 1.554572083463261 283.6246199550086 10.51983209128465
0.0083 6366.20657374044 1.000303473819213 1.554499883200527 283.5572706871397 10.47264342098683
0.008400000000000001 6366.216981159614 1.000303019084256 1.554427629544345 283.4896224625085 10.42543308995612
0.008500000000000001 6366.22743460647 1.000302563223682 1.55435532237843 283.4216750579475 10.37820279584154
0.0086 6366.237934115419 1.000302106245647 1.554282961587745 283.3534282497752 10.33095423419541
0.008700000000000001 6366.248479720947 1.000301648158319 1.554210547058478 283.2848818138431 10.28368909840641
0.008800000000000001 6366.259071457614 1.000301188969875 1.554138078678093 283.2160355255058 10.23640907957932
0.0089 6366.269709360055 1.000300728688499 1.554065556335303 283.1468891596454 10.18911586645159
0.009000000000000001 6366.280393462976 1.000300267322385 1.553992979920118 283.0774424906589 10.14181114528563
0.0091 6366.291123801155 1.000299804879736 1.553920349323736 283.0076952924941 10.09449659979334
0.0092 6366.301900409442 1.000299341368762 1.5538476644387 282.9376473386259 10.04717391102039
0.009300000000000001 6366.31272332276 1.000298876797683 1.553774925158745 282.8672984020621 9.999844757250804
0.0094 6366.323592576096 1.000298411174723 1.553702131378887 282.7966482553733 9.952510813927509
0.0095 6366.334508204512 1.000297944508116 1.55362928299544 282.7256966706744 9.905173753540943
0.009600000000000001 6366.345470243133 1.000297476806101 1.553556379905968 282.6544434196375 9.857835245537789
0.0097 6366.356478727153 1.000297008076927 1.553483422009273 282.5828882735026 9.810496956229651
0.0098 6366.367533691835 1.000296538328845 1.553410409205499 282.5110310030726 9.763160548690065
0.009900000000000001 6366.378635172503 1.000296067570116 1.553337341395969 282.4388713787306 9.715827682667266
0.01 6366.389783204549 1.000295595809002 1.553264218483368 282.3664091704339 9.668500014481427
0.0101 6366.400977823428 1.000295123053776 1.553191040371552 282.2936441477203 9.621179196929893
0.0102 6366.412219064659 1.000294649312711 1.553117806965777 282.2205760797195 9.573866879196331
0.0103 6366.423506963823 1.000294174594089 1.553044518172469 282.1472047351534 9.526564706752296
0.0104 6366.434841556562 1.000293698906194 1.552971173899378 282.0735298823478 9.479274321266594
0.0105 6366.446222878579 1.000293222257314 1.552897774055543 281.9995512892382 9.431997360510907
0.0106 6366.457650965638 1.000292744655742 1.552824318551261 281.9252687233524 9.384735458250557
0.0107 6366.469125853562 1.000292266109774 1.552750807298103 281.8506819518456 9.337490244169437
0.0108 6366.480647578231 1.00029178662771 1.552677240208921 281.7757907415006 9.29026334377229
0.0109 6366.492216175583 1.000291306217852 1.552603617197903 281.7005948587101 9.243056378276147
0.011 6366.503831681614 1.000290824888506 1.552529938180415 281.6250940695062 9.195870964531817
0.0111 6366.515494132376 1.000290342647977 1.552456203073227 281.5492881395543 9.148708714923162
0.0112 6366.527203563974 1.000289859504577 1.552382411794301 281.4731768341711 9.101571237281366
0.0113 6366.538960012569 1.000289375466616 1.552308564262904 281.396759918301 9.05446013477375
0.0114 6366.550763514376 1.000288890542406 1.552234660399629 281.3200371565571 9.007377005833114
0.0115 6366.562614105661 1.00028840474026 1.552160700126307 281.2430083132039 8.960323444050657
0.0116 6366.574511822742 1.000287918068494 1.552086683366124 281.1656731521747 8.91330103809107
0.0117 6366.58645670199 1.000287430535422 1.552012610043441 281.088031437066 8.866311371593342
0.0118 6366.598448779825 1.000286942149358 1.551938480084037 281.0100829311372 8.819356023075596
0.0119 6366.610488092717 1.000286452918617 1.551864293414855 280.9318273973403 8.772436565857943
0.012 6366.622574677183 1.000285962851514 1.551790049964233 280.8532645983081 8.725554567960558
0.0121 6366.63470856979 1.000285471956361 1.551715749661716 280.774394296366 8.678711592016347
0.0122 6366.646889807151 1.000284980241471 1.551641392438203 280.6952162535202 8.631909195169829
0.0123 6366.659118425925 1.000284487715155 1.551566978225843 280.6157302314872 8.585148929000907
0.0124 6366.671394462817 1.000283994385722 1.551492506958096 280.5359359916878 8.538432339427807
0.0125 6366.683717954576 1.000283500261477 1.551417978569711 280.4558332952591 8.491760966620834
0.0126 6366.696088937993 1.000283005350727 1.551343392996685 280.3754219030428 8.445136344902652
0.0127 6366.708507449907 1.000282509661773 1.55126875017636 280.2947015756025 8.398560002666219
0.0128 6366.720973527194 1.000282013202913 1.551194050047354 280.2136720732359 8.352033462289432
0.0129 6366.733487206775 1.000281515982443 1.551119292549556 280.1323331559628 8.305558240036573
0.013 6366.746048525608 1.000281018008654 1.551044477624177 280.0506845835488 8.259135845980479
0.0131 6366.758657520693 1.000280519289835 1.550969605213682 279.9687261154935 8.212767783904788
0.0132 6366.771314229069 1.000280019834268 1.550894675261872 279.8864575110541 8.166455551226724
0.0133 6366.784018687811 1.000279519650233 1.550819687713786 279.8038785292277 8.120200638896884
0.0134 6366.796770934033 1.000279018746004 1.550744642515781 279.7209889287868 8.074004531329335
0.0135 6366.809571004886 1.000278517129848 1.550669539615508 279.6377884682437 8.027868706292406
0.0136 6366.822418937554 1.00027801481003 1.550594378961886 279.5542769058978 7.98179463484609
0.0137 6366.835314769259 1.000277511794806 1.550519160505161 279.4704539998182 7.935783781243582
0.0138 6366.848258537254 1.000277008092427 1.550443884196807 279.3863195078492 7.889837602846484
0.0139 6366.861250278826 1.000276503711138 1.550368549989649 279.3018731876281 7.843957550046875
0.014 6366.874290031296 1.000275998659176 1.55029315783776 279.2171147965736 7.798145066173651
0.0141 6366.887377832016 1.000275492944772 1.550217707696498 279.1320440918975 7.752401587412311
0.0142 6366.900513718366 1.000274986576148 1.550142199522555 279.0466608306223 7.706728542728237
0.0143 6366.913697727759 1.00027447956152 1.55006663327383 278.9609647695696 7.661127353774558
0.0144 6366.926929897635 1.000273971909096 1.549991008909554 278.8749556653719 7.61559943481326
0.0145 6366.940210265465 1.000273463627072 1.549915326390268 278.7886332744782 7.570146192633575
0.0146 6366.953538868745 1.000272954723641 1.549839585677732 278.7019973531604 7.524769026470857
0.0147 6366.966915744997 1.000272445206981 1.549763786735022 278.6150476575189 7.479469327925947
0.0148 6366.980340931772 1.000271935085266 1.549687929526506 278.5277839434824 7.434248480882001
0.0149 6366.993814466643 1.000271424366655 1.549612014017818 278.4402059668204 7.389107861428001
0.015 6367.00733638721 1.000270913059303 1.549536040175854 278.3523134831365 7.344048837773625
0.0151 6367.020906731093 1.000270401171349 1.549460007968803 278.2641062478987 7.299072770182875
0.0152 6367.034525535937 1.000269888710924 1.549383917366159 278.1755840164091 7.254181010877973
0.0153 6367.048192839409 1.00026937568615 1.549307768338622 278.0867465438399 7.209374903977078
0.0154 6367.061908679197 1.000268862105133 1.549231560858231 277.9975935852216 7.164655785408438
0.0155 6367.075673093007 1.000268347975972 1.549155294898276 277.9081248954543 7.120024982837141
0.0156 6367.089486118565 1.000267833306752 1.549078970433302 277.8183402293261 7.075483815595298
0.0157 6367.103347793619 1.000267318105545 1.549002587439135 277.728239341477 7.031033594586406
0.0158 6367.11725815593 1.000266802380413 1.548926145892878 277.6378219864526 6.986675622234398
0.0159 6367.131217243279 1.000266286139403 1.548849645772892 277.5470879186863 6.942411192397986
0.016 6367.145225093463 1.000265769390549 1.548773087058788 277.456036892493 6.898241590291728
0.0161 6367.159281744292 1.000265252141874 1.548696469731487 277.3646686621049 6.854168092427809
0.0162 6367.173387233594 1.000264734401383 1.548619793773109 277.272982981642 6.810191966526872
0.0163 6367.187541599207 1.000264216177072 1.548543059167064 277.1809796051533 6.766314471463787
0.0164 6367.201744878987 1.000263697476918 1.54846626589804 277.0886582865872 6.722536857179952
0.0165 6367.215997110797 1.000263178308887 1.548389413951952 276.9960187798214 6.678860364624615
0.0166 6367.230298332514 1.000262658680928 1.548312503315984 276.9030608386564 6.635286225679892
0.0167 6367.244648582026 1.000262138600975 1.548235533978539 276.809784216828 6.591815663094881
0.0168 6367.259047897231 1.000261618076947 1.548158505929315 276.7161886680009 6.548449890412174
0.0169 6367.273496316033 1.000261097116747 1.548081419159229 276.6222739457866 6.505190111906106
0.017 6367.287993876346 1.000260575728261 1.548004273660458 276.5280398037493 6.4620375225161
0.0171 6367.302540616095 1.000260053919361 1.547927069426418 276.4334859953823 6.418993307767309
0.0172 6367.317136573205 1.000259531697898 1.547849806451754 276.3386122741671 6.376058643729777
0.0173 6367.331781785611 1.000259009071711 1.547772484732362 276.243418393526 6.333234696929746
0.0174 6367.346476291254 1.000258486048617 1.547695104265385 276.1479041068518 6.290522624296798
0.0175 6367.361220128076 1.000257962636419 1.547617665049174 276.0520691675077 6.247923573098266
0.0176 6367.376013334026 1.0002574388429 1.547540167083314 275.9559133288334 6.205438680877069
0.0177 6367.390855947052 1.000256914675824 1.547462610368648 275.8594363441624 6.163069075395494
0.0178 6367.405748005106 1.00025639014294 1.54738499490721 275.7626379668108 6.120815874566662
0.0179 6367.420689546143 1.000255865251975 1.547307320702259 275.6655179500707 6.078680186389628
0.018 6367.435680608115 1.000255340010637 1.547229587758312 275.5680760472522 6.036663108905747
0.0181 6367.450721228976 1.000254814426617 1.547151796081067 275.4703120116536 5.994765730124966
0.0182 6367.465811446678 1.000254288507584 1.547073945677426 275.3722255965907 5.952989127978562
0.0183 6367.480951299171 1.000253762261188 1.546996036555551 275.2738165553855 5.911334370254848
0.0184 6367.496140824403 1.000253235695058 1.546918068724782 275.1750846413773 5.869802514545873
0.0185 6367.511380060319 1.000252708816805 1.546840042195653 275.0760296079296 5.828394608192375
0.0186 6367.526669044856 1.000252181634015 1.546761956979921 274.9766512084351 5.787111688229573
0.0187 6367.542007815952 1.000251654154257 1.546683813090527 274.8769491963102 5.745954781328889
0.0188 6367.557396411536 1.000251126385075 1.546605610541643 274.7769233250186 5.704924903752804
0.0189 6367.572834869528 1.000250598333995 1.546527349348579 274.6765733480655 5.664023061298257
0.019 6367.588323227847 1.000250070008518 1.546449029527895 274.5758990189914 5.623250249241073
0.0191 6367.603861524401 1.000249541416125 1.546370651097267 274.4749000913961 5.582607452293295
0.0192 6367.619449797087 1.000249012564274 1.546292214075604 274.3735763189324 5.542095644549322
0.0193 6367.635088083796 1.000248483460398 1.546213718482991 274.2719274553241 5.501715789442458
0.0194 6367.650776422406 1.000247954111911 1.546135164340688 274.1699532543602 5.461468839692856
0.0195 6367.666514850786 1.000247424526201 1.546056551671086 274.0676534698886 5.421355737256526
0.0196 6367.682303406795 1.000246894710632 1.545977880497798 273.9650278558341 5.381377413284603
0.0197 6367.698142128274 1.000246364672547 1.545899150845581 273.8620761662163 5.341534788083314
0.0198 6367.714031053057 1.000245834419262 1.545820362740348 273.7587981551313 5.301828771061095
0.0199 6367.729970218959 1.000245303958072 1.545741516209143 273.6551935767642 5.262260260688217
0.02 6367.745959663785 1.000244773296243 1.545662611280238 273.5512621854003 5.222830144457239
0.0201 6367.76199942532 1.00024424244102 1.545583647982984 273.4470037354198 5.183539298837641
0.0202 6367.778089541337 1.000243711399621 1.545504626347872 273.342417981309 5.144388589238168
0.0203 6367.79423004959 1.00024318017924 1.545425546406614 273.2375046776668 5.105378869967836
