#theta R n z T P_w
0 6365.5 1.000272872462259 1.560324351282931 288.15 0
0.0001 6365.506698014227 1.000272697040674 1.560240952250134 288.1064629075221 0
0.0002 6365.513449129193 1.000272520315692 1.560157545548662 288.0625806602465 0
0.0003 6365.520253350042 1.000272342289217 1.560074131108325 288.0183532247246 0
0.0004 6365.527110681967 1.000272162963167 1.559990708859187 287.9737805672124 0
0.0005 6365.534021130205 1.000271982339473 1.559907278731551 287.9288626536644 0
0.0006000000000000001 6365.540984700043 1.00027180042008 1.559823840655942 287.8835994497216 0
0.0007 6365.54800139681 1.000271617206947 1.559740394563163 287.8379909207355 0
0.0008 6365.555071225885 1.000271432702045 1.559656940384211 287.7920370317501 0
0.0009000000000000001 6365.562194192689 1.000271246907364 1.55957347805029 287.7457377475197 0
0.001 6365.569370302695 1.000271059824901 1.559490007492896 287.6990930324854 0
0.0011 6365.576599561416 1.000270871456671 1.55940652864367 287.6521028507985 0
0.0012 6365.583881974413 1.000270681804703 1.559323041434471 287.6047671663149 0
0.0013 6365.591217547291 1.000270490871038 1.559239545797423 287.5570859426065 0
0.0014 6365.598606285704 1.000270298657731 1.559156041664779 287.509059142926 0
0.0015 6365.606048195347 1.000270105166851 1.559072528969032 287.4606867302426 0
0.0016 6365.613543281963 1.00026991040048 1.558989007642915 287.4119686672415 0
0.0017 6365.621091551337 1.000269714360716 1.558905477619254 287.3629049163063 0
0.0018 6365.628693009305 1.000269517049668 1.558821938831141 287.3134954395194 0
0.0019 6365.636347661739 1.000269318469459 1.558738391211815 287.2637401986971 0
0.002 6365.644055514562 1.000269118622228 1.558654834694767 287.213639155348 0
0.0021 6365.65181657374 1.000268917510124 1.558571269213596 287.1631922706914 0
0.0022 6365.659630845282 1.000268715135313 1.558487694702113 287.1123995056686 0
0.0023 6365.667498335244 1.000268511499971 1.558404111094273 287.0612608209134 0
0.0024 6365.675419049724 1.000268306606292 1.558320518324286 287.0097761767937 0
0.0025 6365.683392994863 1.000268100456479 1.558236916326448 286.9579455333877 0
0.0026 6365.69142017685 1.00026789305275 1.558153305035274 286.905768850478 0
0.0027 6365.699500601913 1.000267684397339 1.558069684385417 286.8532460875634 0
0.0028 6365.707634276329 1.000267474492491 1.557986054311686 286.8003772038591 0
0.0029 6365.715821206415 1.000267263340464 1.557902414749131 286.7471621583021 0
0.003 6365.72406139853 1.00026705094353 1.557818765632905 286.6936009095519 0
0.0031 6365.732354859081 1.000266837303975 1.557735106898307 286.6396934159724 0
0.0032 6365.740701594515 1.000266622424099 1.557651438480804 286.5854396356493 0
0.0033 6365.749101611324 1.000266406306213 1.55756776031607 286.5308395263909 0
0.0034 6365.757554916043 1.000266188952643 1.557484072339846 286.4758930457214 0
0.0035 6365.766061515248 1.000265970365729 1.557400374488112 286.4206001508873 0
0.0036 6365.77462141556 1.000265750547822 1.557316666696955 286.3649607988572 0
0.0037 6365.783234623643 1.000265529501288 1.557232948902586 286.3089749463219 0
0.0038 6365.791901146203 1.000265307228505 1.557149221041448 286.2526425496825 0
0.0039 6365.800620989989 1.000265083731866 1.557065483050022 286.1959635650741 0
0.004 6365.809394161791 1.000264859013776 1.556981734865056 286.1389379483597 0
0.0041 6365.818220668443 1.000264633076653 1.556897976423345 286.0815656551189 0
0.004200000000000001 6365.827100516823 1.000264405922929 1.556814207661868 286.023846640653 0
0.0043 6365.836033713847 1.000264177555048 1.556730428517743 285.9657808599917 0
0.0044 6365.845020266479 1.000263947975468 1.556646638928245 285.9073682678867 0
0.004500000000000001 6365.854060181719 1.000263717186659 1.556562838830743 285.8486088188296 0
0.0046 6365.863153466612 1.000263485191106 1.556479028162802 285.7895024670223 0
0.0047 6365.872300128245 1.000263251991306 1.556395206862103 285.7300491664067 0
0.0048 6365.881500173748 1.000263017589767 1.556311374866456 285.6702488706409 0
0.0049 6365.89075361029 1.000262781989013 1.556227532113797 285.6101015331168 0
0.005 6365.900060445084 1.000262545191581 1.556143678542218 285.5496071069546 0
0.0051 6365.909420685383 1.000262307200017 1.556059814089956 285.4887655450083 0
0.005200000000000001 6365.918834338484 1.000262068016885 1.555975938695367 285.4275767998541 0
0.0053 6365.928301411722 1.000261827644758 1.555892052296919 285.3660408238082 0
0.0054 6365.937821912476 1.000261586086224 1.555808154833272 285.3041575689089 0
0.005500000000000001 6365.947395848164 1.000261343343883 1.555724246243158 285.2419269869341 0
0.0056 6365.957023226248 1.000261099420348 1.55564032646546 285.1793490293902 0
0.0057 6365.966704054229 1.000260854318245 1.555556395439214 285.1164236475114 0
0.0058 6365.97643833965 1.000260608040212 1.555472453103562 285.0531507922777 0
0.0059 6365.986226090094 1.000260360588901 1.555388499397788 284.9895304143914 0
0.006 6365.996067313185 1.000260111966975 1.555304534261291 284.9255624643005 0
0.0061 6366.005962016588 1.000259862177112 1.555220557633603 284.861246892175 0
0.006200000000000001 6366.015910208012 1.000259611221999 1.555136569454393 284.7965836479192 0
0.0063 6366.025911895202 1.00025935910434 1.555052569663463 284.7315726811888 0
0.0064 6366.035967085943 1.000259105826848 1.55496855820072 284.6662139413678 0
0.006500000000000001 6366.046075788066 1.000258851392251 1.554884535006223 284.600507377574 0
0.0066 6366.056238009436 1.000258595803288 1.554800500020136 284.5344529386651 0
0.0067 6366.066453757964 1.000258339062711 1.554716453182755 284.468050573233 0
0.0068 6366.076723041597 1.000258081173286 1.554632394434506 284.4013002296209 0
0.006900000000000001 6366.087045868324 1.000257822137787 1.554548323715944 284.3342018558945 0
0.007 6366.097422246174 1.000257561959007 1.554464240967736 284.2667553998712 0
0.0071 6366.107852183215 1.000257300639745 1.554380146130696 284.198960809102 0
0.007200000000000001 6366.118335687556 1.000257038182816 1.554296039145745 284.1308180308841 0
0.0073 6366.128872767346 1.000256774591048 1.554211919953927 284.0623270122486 0
0.0074 6366.139463430773 1.000256509867278 1.554127788496436 283.9934876999781 0
0.007500000000000001 6366.150107686064 1.000256244014358 1.55404364471454 283.9243000405835 0
0.0076 6366.160805541488 1.000255977035151 1.553959488549677 283.8547639803272 0
0.0077 6366.171557005352 1.000255708932533 1.553875319943387 283.7848794652117 0
0.007800000000000001 6366.182362086002 1.000255439709391 1.553791138837324 283.7146464409851 0
0.007900000000000001 6366.193220791825 1.000255169368627 1.553706945173295 283.6440648531355 0
0.008 6366.204133131247 1.00025489791315 1.553622738893214 283.5731346468968 0
0.0081 6366.215099112729 1.000254625345888 1.553538519939108 283.5018557672605 0
0.008200000000000001 6366.226118744778 1.000254351669774 1.553454288253146 283.4302281589461 0
0.0083 6366.237192035936 1.000254076887758 1.553370043777604 283.3582517664189 0
0.008400000000000001 6366.248318994783 1.000253801002801 1.553285786454887 283.2859265339079 0
0.008500000000000001 6366.259499629942 1.000253524017873 1.553201516227523 283.2132524053758 0
0.0086 6366.270733950072 1.000253245935961 1.553117233038165 283.1402293245313 0
0.008700000000000001 6366.282021963871 1.00025296676006 1.553032936829575 283.0668572348408 0
0.008800000000000001 6366.293363680074 1.000252686493178 1.552948627544659 282.9931360795161 0
0.0089 6366.30475910746 1.000252405138335 1.552864305126433 282.9190658015094 0
0.009000000000000001 6366.316208254842 1.000252122698563 1.552779969518021 282.8446463435301 0
0.0091 6366.327711131072 1.000251839176906 1.552695620662691 282.7698776480337 0
0.0092 6366.339267745041 1.000251554576419 1.552611258503829 282.694759657233 0
0.009300000000000001 6366.35087810568 1.000251268900169 1.552526882984927 282.619292313081 0
0.0094 6366.362542221955 1.000250982151236 1.552442494049626 282.5434755572941 0
0.0095 6366.374260102873 1.000250694332709 1.552358091641676 282.4673093313285 0
0.009600000000000001 6366.386031757476 1.000250405447691 1.552273675704924 282.390793576404 0
0.0097 6366.397857194849 1.000250115499296 1.552189246183389 282.3139282334804 0
0.0098 6366.40973642411 1.000249824490649 1.552104803021181 282.2367132432868 0
0.009900000000000001 6366.421669454415 1.000249532424887 1.552020346162556 282.159148546304 0
0.01 6366.433656294962 1.000249239305158 1.551935875551834 282.0812340827468 0
0.0101 6366.445696954984 1.000248945134623 1.551851391133524 282.0029697926055 0
0.0102 6366.45779144375 1.000248649916452 1.551766892852228 281.9243556156219 0
0.0103 6366.469939770571 1.000248353653828 1.551682380652671 281.8453914912897 0
0.0104 6366.482141944791 1.000248056349947 1.551597854479704 281.7660773588599 0
0.0105 6366.494397975795 1.000247758008012 1.551513314278314 281.6864131573356 0
0.0106 6366.506707873002 1.000247458631241 1.551428759993577 281.606398825489 0
0.0107 6366.519071645871 1.000247158222862 1.551344191570732 281.5260343018384 0
0.0108 6366.531489303898 1.000246856786114 1.551259608955105 281.4453195246655 0
0.0109 6366.543960856613 1.000246554324247 1.551175012092179 281.3642544320154 0
0.011 6366.556486313587 1.000246250840525 1.551090400927531 281.2828389616851 0
0.0111 6366.569065684424 1.000245946338218 1.551005775406891 281.201073051241 0
0.0112 6366.581698978771 1.000245640820611 1.550921135476071 281.1189566379893 0
0.0113 6366.594386206305 1.000245334291 1.550836481081042 281.0364896590175 0
0.0114 6366.607127376743 1.00024502675269 1.550751812167908 280.9536720511709 0
0.0115 6366.619922499839 1.000244718208998 1.550667128682861 280.8705037510462 0
0.0116 6366.632771585383 1.000244408663252 1.550582430572228 280.7869846950097 0
0.0117 6366.6456746432 1.000244098118791 1.550497717782475 280.7031148191971 0
0.0118 6366.658631683154 1.000243786578966 1.550412990260186 280.618894059496 0
0.0119 6366.671642715145 1.000243474047136 1.550328247952079 280.5343223515573 0
0.012 6366.684707749107 1.000243160526672 1.550243490804972 280.4493996308014 0
0.0121 6366.697826795013 1.000242846020959 1.550158718765823 280.3641258324182 0
0.0122 6366.710999862868 1.000242530533387 1.550073931781724 280.2785008913551 0
0.0123 6366.724226962719 1.000242214067362 1.549989129799859 280.1925247423291 0
0.0124 6366.737508104643 1.000241896626297 1.549904312767615 280.1061973198206 0
0.0125 6366.750843298758 1.000241578213618 1.549819480632397 280.0195185580736 0
0.0126 6366.764232555213 1.00024125883276 1.549734633341821 279.9324883911135 0
0.0127 6366.777675884198 1.000240938487169 1.549649770843589 279.8451067527111 0
0.0128 6366.791173295934 1.000240617180302 1.549564893085557 279.7573735764307 0
0.0129 6366.80472480068 1.000240294915626 1.54948000001566 279.6692887955822 0
0.013 6366.818330408728 1.000239971696619 1.549395091582031 279.5808523432687 0
0.0131 6366.831990130409 1.000239647526769 1.549310167732877 279.4920641523389 0
0.0132 6366.845703976089 1.000239322409575 1.549225228416522 279.402924155423 0
0.0133 6366.859471956165 1.000238996348544 1.549140273581468 279.3134322849263 0
0.0134 6366.873294081074 1.000238669347197 1.549055303176329 279.2235884730179 0
0.0135 6366.887170361285 1.000238341409061 1.548970317149812 279.133392651648 0
0.0136 6366.901100807303 1.000238012537678 1.548885315450804 279.0428447525304 0
0.0137 6366.915085429669 1.000237682736597 1.548800298028262 278.9519447071542 0
0.0138 6366.929124238957 1.000237352009377 1.548715264831327 278.860692446778 0
0.0139 6366.943217245778 1.000237020359588 1.54863021580924 278.7690879024416 0
0.014 6366.957364460775 1.000236687790811 1.54854515091139 278.6771310049602 0
0.0141 6366.971565894629 1.000236354306635 1.548460070087275 278.5848216849125 0
0.0142 6366.985821558052 1.000236019910661 1.548374973286524 278.4921598726645 0
0.0143 6367.000131461791 1.000235684606498 1.54828986045892 278.3991454983574 0
0.0144 6367.014495616631 1.000235348397766 1.548204731554349 278.3057784918959 0
0.0145 6367.028914033389 1.000235011288096 1.54811958652284 278.2120587829721 0
0.0146 6367.043386722913 1.000234673281125 1.548034425314554 278.1179863010651 0
0.0147 6367.057913696091 1.000234334380505 1.547949247879784 278.0235609754117 0
0.0148 6367.07249496384 1.000233994589893 1.547864054168946 277.9287827350416 0
0.0149 6367.087130537115 1.000233653912959 1.547778844132597 277.8336515087543 0
0.015 6367.101820426901 1.00023331235338 1.54769361772144 277.7381672251421 0
0.0151 6367.11656464422 1.000232969914846 1.547608374886264 277.6423298125668 0
0.0152 6367.131363200127 1.000232626601053 1.547523115578039 277.5461391991715 0
0.0153 6367.14621610571 1.000232282415709 1.54743783974784 277.4495953128866 0
0.0154 6367.161123372091 1.00023193736253 1.547352547346888 277.3526980814116 0
0.0155 6367.176085010424 1.000231591445242 1.547267238326532 277.2554474322454 0
0.0156 6367.191101031899 1.000231244667581 1.547181912638266 277.1578432926561 0
0.0157 6367.206171447739 1.000230897033292 1.547096570233674 277.0598855896991 0
0.0158 6367.221296269197 1.000230548546129 1.547011211064548 276.9615742502227 0
0.0159 6367.236475507561 1.000230199209854 1.546925835082755 276.8629092008508 0
0.016 6367.251709174156 1.000229849028242 1.546840442240331 276.7638903679884 0
0.0161 6367.266997280333 1.000229498005073 1.546755032489413 276.6645176778337 0
0.0162 6367.282339837482 1.000229146144139 1.546669605782311 276.5647910563661 0
0.0163 6367.297736857022 1.00022879344924 1.546584162071438 276.464710429358 0
0.0164 6367.313188350406 1.000228439924185 1.546498701309359 276.3642757223632 0
0.0165 6367.328694329119 1.000228085572791 1.546413223448797 276.2634868607287 0
0.0166 6367.344254804681 1.000227730398888 1.54632772844256 276.1623437695765 0
0.0167 6367.359869788641 1.00022737440631 1.546242216243627 276.0608463738339 0
0.0168 6367.375539292582 1.000227017598902 1.546156686805138 275.9589945982151 0
0.0169 6367.391263328122 1.000226659980519 1.5460711400803 275.8567883672098 0
0.017 6367.407041906906 1.000226301555023 1.545985576022531 275.7542276051125 0
0.0171 6367.422875040614 1.000225942326286 1.545899994585342 275.651312236011 0
0.0172 6367.438762740959 1.000225582298187 1.545814395722402 275.5480421837682 0
0.0173 6367.454705019683 1.000225221474615 1.545728779387502 275.444417372058 0
0.0174 6367.470701888564 1.000224859859468 1.545643145534603 275.3404377243354 0
0.0175 6367.486753359409 1.000224497456652 1.545557494117757 275.2361031638428 0
0.0176 6367.502859444057 1.000224134270081 1.545471825091197 275.1314136136274 0
0.0177 6367.519020154379 1.000223770303679 1.545386138409285 275.0263689965353 0
0.0178 6367.535235502278 1.000223405561376 1.545300434026524 274.9209692351941 0
0.0179 6367.551505499686 1.000223040047113 1.545214711897546 274.815214252042 0
0.018 6367.567830158569 1.000222673764838 1.545128971977142 274.7091039692986 0
0.0181 6367.584209490926 1.000222306718507 1.545043214220224 274.6026383089824 0
0.0182 6367.600643508782 1.000221938912085 1.544957438581853 274.4958171929169 0
0.0183 6367.617132224197 1.000221570349545 1.544871645017247 274.3886405427187 0
0.0184 6367.633675649262 1.000221201034868 1.544785833481745 274.2811082797974 0
0.0185 6367.650273796096 1.000220830972043 1.544700003930839 274.1732203253736 0
0.0186 6367.666926676852 1.000220460165068 1.54461415632016 274.0649766004607 0
0.0187 6367.683634303713 1.000220088617948 1.544528290605484 273.9563770258654 0
0.0188 6367.700396688891 1.000219716334697 1.544442406742733 273.8474215222112 0
0.0189 6367.717213844629 1.000219343319334 1.544356504687972 273.7381100099086 0
0.019 6367.734085783203 1.000218969575891 1.544270584397408 273.628442409179 0
0.0191 6367.751012516917 1.000218595108403 1.544184645827377 273.5184186400369 0
0.0192 6367.767994058107 1.000218219920916 1.544098688934394 273.4080386223076 0
0.0193 6367.785030419137 1.000217844017481 1.544012713675084 273.2973022756095 0
0.0194 6367.802121612403 1.000217467402159 1.543926720006251 273.1862095193836 0
0.0195 6367.819267650329 1.000217090079019 1.5438407078848 273.0747602728583 0
0.0196 6367.836468545374 1.000216712052134 1.54375467726782 272.9629544550666 0
0.0197 6367.853724310021 1.000216333325588 1.543668628112538 272.8507919848643 0
0.0198 6367.871034956785 1.000215953903473 1.543582560376328 272.7382727809003 0
0.0199 6367.88840049821 1.000215573789884 1.5434964740167 272.6253967616343 0
0.02 6367.905820946872 1.000215192988928 1.543410368991309 272.512163845331 0
0.0201 6367.923296315375 1.000214811504718 1.543324245257971 272.3985739500657 0
0.0202 6367.940826616351 1.000214429341373 1.543238102774651 272.2846269937189 0
0.0203 6367.958411862464 1.00021404650302 1.543151941499449 272.1703228939817 0
0.0204 6367.976052066406 1.000213662993794 1.54306576139063 272.0556615683621 0
0.0205 6367.993747240896 1.000213278817837 1.542979562406583 271.9406429341788 0
0.0206 6368.011497398686 1.000212893979297 1.542893344505862 271.8252669085435 0
0.0207 6368.029302552554 1.000212508482329 1.542807107647186 271.7095334083969 0
0.0208 6368.047162715309 1.000212122331096 1.542720851789393 271.5934423504899 0
0.0209 6368.065077899788 1.000211735529769 1.542634576891473 271.4769936513788 0
0.021 6368.083048118855 1.000211348082523 1.542548282912594 271.3601872274425 0
0.0211 6368.101073385405 1.000210959993541 1.542461969812058 271.2430229948644 0
0.0212 6368.119153712361 1.000210571267015 1.54237563754932 271.1255008696511 0
0.0213 6368.137289112674 1.000210181907141 1.542289286083964 271.0076207676196 0
0.0214 6368.155479599322 1.000209791918121 1.542202915375767 270.8893826044099 0
0.0215 6368.173725185312 1.000209401304168 1.542116525384638 270.7707862954725 0
0.0216 6368.192025883682 1.000209010069497 1.54203011607062 270.6518317560689 0
0.0217 6368.210381707493 1.000208618218332 1.541943687393934 270.532518901295 0
0.0218 6368.228792669839 1.000208225754903 1.541857239314943 270.4128476460459 0
0.0219 6368.247258783839 1.000207832683445 1.541770771794169 270.2928179050449 0
0.022 6368.265780062639 1.000207439008202 1.541684284792289 270.1724295928442 0
0.0221 6368.284356519415 1.000207044733423 1.541597778270109 270.0516826238007 0
0.0222 6368.302988167369 1.000206649863363 1.541511252188617 269.9305769121 0
0.0223 6368.321675019731 1.000206254402283 1.541424706508961 269.8091123717503 0
0.0224 6368.340417089757 1.00020585835445 1.541338141192416 269.6872889165764 0
0.0225 6368.359214390734 1.00020546172414 1.541251556200416 269.565106460226 0
0.0226 6368.378066935973 1.000205064515632 1.541164951494576 269.4425649161752 0
0.0227 6368.396974738812 1.000204666733211 1.541078327036639 269.3196641977228 0
0.0228 6368.415937812617 1.000204268381169 1.540991682788533 269.1964042179901 0
0.0229 6368.434956170781 1.000203869463804 1.540905018712296 269.0727848899213 0
0.023 6368.454029826724 1.00020346998542 1.540818334770172 268.9488061262949 0
0.0231 6368.473158793892 1.000203069950325 1.540731630924533 268.8244678397003 0
0.0232 6368.492343085757 1.000202669362836 1.540644907137917 268.6997699425791 0
0.0233 6368.51158271582 1.000202268227273 1.540558163373013 268.5747123471718 0
0.0234 6368.530877697604 1.000201866547962 1.540471399592688 268.4492949655713 0
0.0235 6368.550228044664 1.000201464329235 1.540384615759933 268.3235177096811 0
0.0236 6368.569633770578 1.00020106157543 1.540297811837927 268.1973804912453 0
0.0237 6368.589094888948 1.000200658290889 1.540210987789998 268.0708832218364 0
0.0238 6368.608611413407 1.000200254479962 1.54012414357963 267.9440258128556 0
0.0239 6368.62818335761 1.000199850147002 1.540037279170475 267.8168081755324 0
0.024 6368.64781073524 1.000199445296367 1.539950394526319 267.689230220937 0
0.0241 6368.667493560006 1.000199039932423 1.539863489611144 267.5612918599621 0
0.0242 6368.687231845638 1.000198634059539 1.539776564389073 267.4329930033526 0
0.0243 6368.707025605898 1.00019822768209 1.539689618824387 267.3043335616643 0
