#theta R n z T P_w
0 6365.5 1.00030891268485 1.560324351282931 288.15 8.014312329694475
0.0001 6365.506698014227 1.000308647234576 1.560249481328845 288.1064629075221 7.991871750771297
0.0002 6365.513443699387 1.000308380176529 1.560174585546645 288.0626159539864 7.969327258075142
0.0003 6365.520237072148 1.000308111515666 1.560099663774124 288.0184590310372 7.946679864036269
0.0004 6365.527078149286 1.000307841256969 1.560024715849801 287.9739920296387 7.923930584836072
0.0005 6365.533966947682 1.000307569405444 1.559949741613108 287.9292148400694 7.901080440340478
0.0006000000000000001 6365.540903484317 1.000307295966124 1.5598747409043 287.88412735194 7.878130454045158
0.0007 6365.547887776279 1.000307020944066 1.559799713564411 287.838729454187 7.855081653008376
0.0008 6365.554919840758 1.000306744344352 1.559724659435229 287.7930210350731 7.831935067786663
0.0009000000000000001 6365.561999695047 1.00030646617209 1.559649578359449 287.747001982193 7.808691732373199
0.001 6365.569127356541 1.00030618643241 1.55957447018059 287.7006721824849 7.785352684138947
0.0011 6365.576302842734 1.00030590513047 1.55949933474289 287.6540315222313 7.761918963767505
0.0012 6365.583526171224 1.000305622271449 1.559424171891418 287.6070798870463 7.738391615183835
0.0013 6365.590797359707 1.000305337860552 1.559348981472118 287.5598171619057 7.714771685503539
0.0014 6365.598116425982 1.000305051903007 1.559273763331681 287.5122432311172 7.691060224952239
0.0015 6365.605483387943 1.000304764404066 1.559198517317621 287.4643579783677 7.667258286823164
0.0016 6365.612898263588 1.000304475369004 1.559123243278302 287.4161612866764 7.64336692738731
0.0017 6365.620361071009 1.000304184803122 1.559047941062783 287.3676530384413 7.619387205850504
0.0018 6365.627871828397 1.000303892711739 1.558972610521053 287.3188331154164 7.595320184274941
0.0019 6365.635430554043 1.000303599100203 1.558897251503852 287.269701398723 7.571166927518158
0.002 6365.64303726633 1.000303303973879 1.558821863862743 287.2202577688557 7.54692850316883
0.0021 6365.650691983742 1.00030300733816 1.558746447450077 287.1705021056767 7.522605981476568
0.0022 6365.658394724856 1.000302709198458 1.558671002119033 287.1204342884333 7.49820043529308
0.0023 6365.666145508347 1.000302409560208 1.558595527723544 287.0700541957461 7.473712939998713
0.0024 6365.67394435298 1.000302108428867 1.558520024118472 287.0193617056269 7.449144573443176
0.0025 6365.68179127762 1.000301805809915 1.558444491159328 286.9683566954726 7.424496415874597
0.0026 6365.689686301221 1.000301501708853 1.558368928702598 286.9170390420653 7.399769549871268
0.0027 6365.697629442833 1.000301196131203 1.558293336605385 286.8654086215842 7.374965060278955
0.0028 6365.705620721598 1.000300889082509 1.558217714725858 286.8134653096112 7.350084034145079
0.0029 6365.71366015675 1.000300580568336 1.558142062922743 286.7612089811254 7.325127560647125
0.003 6365.721747767616 1.00030027059427 1.558066381055699 286.7086395104969 7.300096731020917
0.0031 6365.729883573611 1.000299959165917 1.557990668985186 286.6557567715284 7.27499263851124
0.0032 6365.738067594245 1.000299646288906 1.557914926572475 286.6025606374077 7.249816378280079
0.0033 6365.746299849116 1.000299331968882 1.557839153679673 286.549050980749 7.224569047356909
0.0034 6365.75458035791 1.000299016211514 1.557763350169673 286.4952276735875 7.199251744566305
0.0035 6365.762909140404 1.00029869902249 1.557687515906139 286.4410905873727 7.173865570455465
0.0036 6365.771286216465 1.000298380407518 1.557611650753634 286.3866395929753 7.148411627227222
0.0037 6365.779711606046 1.000298060372324 1.557535754577478 286.3318745606979 7.122891018675625
0.0038 6365.788185329189 1.000297738922655 1.557459827243862 286.2767953602701 7.0973048501131
0.0039 6365.796707406023 1.000297416064277 1.557383868619711 286.2214018608537 7.071654228303032
0.004 6365.805277856761 1.000297091802974 1.557307878572851 286.165693931055 7.045940261394937
0.0041 6365.813896701705 1.00029676614455 1.557231856971923 286.1096714389186 7.020164058851263
0.004200000000000001 6365.822563961241 1.000296439094828 1.557155803686312 286.0533342519333 6.994326731379617
0.0043 6365.831279655842 1.000296110659646 1.55707971858633 285.9966822370264 6.968429390859447
0.0044 6365.840043806063 1.000295780844866 1.557003601543006 285.9397152605933 6.942473150284829
0.004500000000000001 6365.848856432543 1.000295449656362 1.556927452428272 285.8824331884674 6.916459123680145
0.0046 6365.857717556009 1.000295117100029 1.556851271114879 285.8248358859445 6.89038842603998
0.0047 6365.866627197265 1.00029478318178 1.556775057476349 285.7669232177763 6.864262173255467
0.0048 6365.8755853772 1.000294447907543 1.556698811387112 285.7086950482002 6.838081482056525
0.0049 6365.884592116786 1.000294111283265 1.55662253272233 285.6501512408921 6.811847469919425
0.005 6365.893647437074 1.000293773314911 1.556546221358049 285.5912916590195 6.785561255019535
0.0051 6365.902751359198 1.000293434008458 1.5564698771712 285.5321161652117 6.759223956146785
0.005200000000000001 6365.911903904372 1.000293093369906 1.556393500039415 285.472624621584 6.732836692644919
0.0053 6365.921105093887 1.000292751405266 1.556317089841273 285.4128168897313 6.706400584337469
0.0054 6365.930354949118 1.000292408120569 1.556240646456124 285.3526928307341 6.679916751458951
0.005500000000000001 6365.939653491514 1.000292063521858 1.556164169764198 285.2922523051587 6.653386314583416
0.0056 6365.949000742607 1.000291717615195 1.556087659646525 285.2314951730572 6.62681039455298
0.0057 6365.958396724001 1.000291370406656 1.556011115984965 285.1704212939907 6.600190112416639
0.0058 6365.967841457384 1.000291021902332 1.555934538662245 285.1090305270062 6.573526589348366
0.0059 6365.977334964515 1.000290672108331 1.555857927561933 285.0473227306542 6.546820946583307
0.006 6365.986877267232 1.000290321030773 1.555781282568423 284.9852977629943 6.520074305348738
0.0061 6365.996468387447 1.000289968675794 1.555704603566918 284.9229554815955 6.493287786792443
0.006200000000000001 6366.006108347148 1.000289615049546 1.555627890443526 284.8602957435363 6.466462511911113
0.0063 6366.015797168397 1.000289260158192 1.555551143085182 284.7973184054221 6.439599601486327
0.0064 6366.02553487333 1.000288904007911 1.555474361379625 284.7340233233557 6.412700176000347
0.006500000000000001 6366.035321484158 1.000288546604895 1.555397545215492 284.6704103529731 6.385765355579685
0.0066 6366.045157023163 1.000288187955351 1.55532069448223 284.6064793494432 6.358796259923482
0.0067 6366.0550415127 1.000287828065497 1.555243809070149 284.5422301674502 6.331794008224465
0.0068 6366.064974975196 1.000287466941566 1.555166888870402 284.4776626612287 6.304759719112374
0.006900000000000001 6366.074957433148 1.000287104589803 1.555089933775007 284.4127766845348 6.277694510570045
0.007 6366.084988909127 1.000286741016465 1.555012943676808 284.3475720906753 6.250599499874351
0.0071 6366.095069425771 1.000286376227824 1.554935918469525 284.2820487324897 6.223475803517395
0.007200000000000001 6366.105199005789 1.00028601023016 1.554858858047742 284.2162064623743 6.196324537144984
0.0073 6366.115377671958 1.00028564302977 1.554781762306815 284.1500451322703 6.169146815480412
0.0074 6366.125605447128 1.000285274632959 1.554704631143079 284.0835645936694 6.141943752255694
0.007500000000000001 6366.13588235421 1.000284905046044 1.554627464453613 284.0167646976319 6.114716460147644
0.0076 6366.146208416189 1.000284534275355 1.554550262136436 283.9496452947686 6.087466050699508
0.0077 6366.156583656113 1.000284162327233 1.554473024090365 283.882206235265 6.060193634259581
0.007800000000000001 6366.167008097099 1.000283789208027 1.554395750215123 283.814447368857 6.03290031990069
0.007900000000000001 6366.177481762328 1.0002834149241 1.554318440411253 283.7463685448669 6.005587215363688
0.008 6366.188004675047 1.000283039481825 1.554241094580161 283.677969612197 5.978255426984241
0.0081 6366.198576858567 1.000282662887582 1.554163712624162 283.6092504193124 5.950906059615086
0.008200000000000001 6366.209198336267 1.000282285147765 1.554086294446374 283.5402108142642 5.92354021656498
0.0083 6366.219869131584 1.000281906268775 1.554008839950834 283.4708506447017 5.896158999532889
0.008400000000000001 6366.230589268023 1.000281526257025 1.553931349042377 283.4011697578484 5.868763508528294
0.008500000000000001 6366.241358769149 1.000281145118935 1.553853821626751 283.3311680005316 5.841354841812676
0.0086 6366.25217765859 1.000280762860934 1.553776257610566 283.2608452191652 5.813934095822463
0.008700000000000001 6366.263045960036 1.000280379489462 1.553698656901292 283.1902012597665 5.786502365106045
0.008800000000000001 6366.273963697237 1.000279995010967 1.553621019407228 283.119235967957 5.759060742253962
0.0089 6366.284930894005 1.000279609431903 1.55354334503761 283.0479491889681 5.731610317831523
0.009000000000000001 6366.295947574209 1.000279222758735 1.553465633702502 282.9763407676409 5.704152180309293
0.0091 6366.30701376178 1.000278834997934 1.553387885312865 282.9044105484321 5.676687415996018
0.0092 6366.318129480707 1.000278446155981 1.553310099780437 282.8321583754026 5.649217108964946
0.009300000000000001 6366.329294755039 1.000278056239362 1.553232277017941 282.7595840922467 5.621742340996109
0.0094 6366.340509608879 1.00027766525457 1.553154416938946 282.686687542286 5.594264191505172
0.0095 6366.351774066391 1.000277273208109 1.553076519457825 282.6134685684582 5.566783737470322
0.009600000000000001 6366.363088151792 1.000276880106485 1.552998584489917 282.539927013352 5.539302053377154
0.0097 6366.374451889358 1.000276485956213 1.552920611951348 282.4660627191719 5.511820211137058
0.0098 6366.38586530342 1.000276090763814 1.552842601759175 282.3918755277676 5.484339280030241
0.009900000000000001 6366.397328418364 1.000275694535816 1.552764553831299 282.3173652806344 5.456860326637806
0.01 6366.408841258628 1.00027529727875 1.552686468086505 282.2425318189183 5.429384414776234
0.0101 6366.420403848707 1.000274898999155 1.552608344444442 282.1673749834052 5.401912605425596
0.0102 6366.432016213148 1.000274499703576 1.552530182825665 282.0918946145379 5.374445956668845
0.0103 6366.44367837655 1.00027409939856 1.552451983151578 282.016090552422 5.346985523626929
0.0104 6366.455390363567 1.000273698090663 1.552373745344438 281.9399626368148 5.319532358387731
0.0105 6366.467152198901 1.000273295786442 1.55229546932745 281.8635107071422 5.292087509945962
0.0106 6366.478963907307 1.000272892492461 1.552217155024606 281.7867346025049 5.264652024138964
0.0107 6366.490825513591 1.000272488215288 1.552138802360837 281.709634161661 5.237226943574313
0.0108 6366.502737042608 1.000272082961493 1.552060411261942 281.6322092230492 5.209813307572532
0.0109 6366.514698519262 1.000271676737651 1.551981981654562 281.554459624795 5.182412152103601
0.011 6366.526709968509 1.000271269550342 1.551903513466264 281.4763852046925 5.155024509715441
0.0111 6366.538771415349 1.000270861406148 1.551825006625443 281.3979858002289 5.127651409477294
0.0112 6366.550882884834 1.000270452311653 1.551746461061398 281.3192612485776 5.10029387691293
0.0113 6366.563044402059 1.000270042273445 1.551667876704311 281.2402113866168 5.072952933942374
0.0114 6366.575255992169 1.000269631298116 1.551589253485215 281.1608360508993 5.045629598807564
0.0115 6366.587517680354 1.000269219392257 1.551510591336059 281.0811350777002 5.018324886024864
0.0116 6366.599829491848 1.000268806562464 1.551431890189656 281.0011083029871 4.991039806311326
0.0117 6366.612191451934 1.000268392815335 1.551353149979653 280.920755562432 4.963775366525574
0.0118 6366.624603585935 1.000267978157467 1.551274370640634 280.8400766914232 4.93653256960893
0.0119 6366.637065919221 1.000267562595462 1.551195552108012 280.7590715250652 4.909312414522793
0.012 6366.649578477203 1.00026714613592 1.551116694318127 280.6777398981789 4.88211589618639
0.0121 6366.662141285337 1.000266728785444 1.551037797208166 280.596081645307 4.854944005416841
0.0122 6366.674754369122 1.000266310550637 1.550958860716187 280.5140966007087 4.827797728865637
0.0123 6366.687417754094 1.000265891438104 1.550879884781131 280.4317845983891 4.800678048967187
0.0124 6366.700131465834 1.000265471454448 1.550800869342812 280.349145472081 4.773585943872018
0.0125 6366.712895529963 1.000265050606272 1.550721814341954 280.2661790552396 4.746522387384353
0.0126 6366.725709972143 1.000264628900183 1.550642719720106 280.1828851810718 4.719488348911633
0.0127 6366.738574818072 1.000264206342782 1.550563585419718 280.0992636825302 4.692484793402728
0.0128 6366.751490093491 1.000263782940674 1.550484411384106 280.0153143923075 4.665512681286583
0.0129 6366.764455824176 1.000263358700461 1.550405197557493 279.9310371428536 4.638572968418895
0.013 6366.777472035945 1.000262933628743 1.550325943884917 279.8464317663587 4.611666606017766
0.0131 6366.790538754648 1.000262507732121 1.550246650312351 279.7614980947882 4.584794540616732
0.0132 6366.803656006176 1.000262081017193 1.55016731678657 279.6762359598532 4.557957713997471
0.0133 6366.816823816454 1.000261653490556 1.550087943255302 279.5906451930463 4.53115706314352
0.0134 6366.830042211443 1.000261225158805 1.550008529667104 279.5047256256174 4.504393520175731
0.0135 6366.84331121714 1.000260796028532 1.549929075971397 279.4184770885921 4.477668012301177
0.0136 6366.856630859575 1.000260366106327 1.549849582118508 279.3318994127652 4.450981461755064
0.0137 6366.870001164812 1.000259935398779 1.549770048059578 279.2449924287188 4.42433478575039
0.0138 6366.883422158951 1.000259503912472 1.549690473746666 279.1577559668161 4.397728896420685
0.0139 6366.896893868124 1.000259071653986 1.549610859132697 279.0701898571959 4.371164700763283
0.014 6366.910416318491 1.000258638629901 1.549531204171412 278.9822939298077 4.344643100595563
0.0141 6366.92398953625 1.000258204846792 1.549451508817524 278.8940680143763 4.318164992490095
0.0142 6366.937613547625 1.000257770311229 1.549371773026497 278.8055119404374 4.291731267731717
0.0143 6366.951288378875 1.000257335029779 1.549291996754717 278.7166255373139 4.265342812257263
0.0144 6366.965014056287 1.000256899009006 1.549212179959448 278.6274086341335 4.239000506608182
0.0145 6366.978790606177 1.000256462255468 1.549132322598759 278.5378610598467 4.212705225883491
0.0146 6366.992618054893 1.000256024775718 1.549052424631661 278.447982643197 4.186457839679272
0.0147 6367.006496428806 1.000255586576306 1.548972486017962 278.3577732127623 4.160259212049521
0.0148 6367.02042575432 1.000255147663775 1.548892506718354 278.2672325969196 4.134110201444961
0.0149 6367.034406057865 1.000254708044664 1.548812486694403 278.1763606238745 4.108011660671342
0.015 6367.048437365897 1.000254267725507 1.548732425908511 278.0851571216671 4.081964436841245
0.0151 6367.0625197049 1.00025382671283 1.548652324323945 277.9936219181481 4.055969371317984
0.0152 6367.076653101382 1.000253385013155 1.548572181904817 277.9017548410146 4.030027299676909
0.0153 6367.090837581876 1.000252942632997 1.548491998616136 277.8095557178043 4.004139051655322
0.0154 6367.105073172942 1.000252499578866 1.548411774423705 277.7170243758773 3.978305451099702
0.0155 6367.119359901162 1.000252055857263 1.548331509294211 277.6241606424459 3.952527315926732
0.0156 6367.133697793143 1.000251611474683 1.548251203195195 277.5309643445688 3.926805458074832
0.0157 6367.148086875515 1.000251166437617 1.548170856095035 277.4374353091511 3.901140683457931
0.0158 6367.16252717493 1.000250720752544 1.548090467962957 277.3435733629557 3.875533791923002
0.0159 6367.177018718061 1.000250274425939 1.548010038769063 277.2493783326039 3.849985577204868
0.016 6367.191561531604 1.000249827464268 1.547929568484263 277.154850044575 3.824496826881567
0.0161 6367.206155642275 1.00024937987399 1.547849057080305 277.0599883252124 3.799068322331878
0.0162 6367.220801076813 1.000248931661554 1.547768504529829 276.9647930007176 3.773700838690226
0.0163 6367.235497861973 1.000248482833403 1.547687910806279 276.8692638971737 3.748395144810039
0.0164 6367.250246024532 1.000248033395971 1.547607275883928 276.7734008405399 3.7231520032197
0.0165 6367.265045591285 1.000247583355681 1.547526599737916 276.6772036566452 3.697972170079169
0.0166 6367.279896589046 1.000247132718951 1.547445882344203 276.5806721712005 3.67285639514183
0.0167 6367.294799044646 1.000246681492188 1.547365123679586 276.4838062098041 3.647805421715332
0.0168 6367.309752984932 1.000246229681788 1.547284323721674 276.3866055979423 3.622819986621451
0.0169 6367.324758436771 1.000245777294141 1.547203482448933 276.2890701609889 3.597900820156567
0.017 6367.339815427044 1.000245324335624 1.547122599840681 276.1911997242172 3.573048646055754
0.0171 6367.354923982646 1.000244870812607 1.547041675877004 276.0929941128001 3.548264181454394
0.0172 6367.370084130491 1.000244416731447 1.546960710538833 275.9944531518098 3.523548136850428
0.0173 6367.385295897506 1.000243962098494 1.546879703807936 275.8955766662124 3.498901216065756
0.0174 6367.400559310631 1.000243506920085 1.546798655666896 275.7963644808968 3.474324116217088
0.0175 6367.415874396821 1.000243051202547 1.546717566099122 275.6968164206636 3.449817527677001
0.0176 6367.431241183042 1.000242594952196 1.546636435088817 275.5969323102244 3.425382134038629
0.0177 6367.446659696277 1.000242138175338 1.546555262621018 275.4967119741963 3.401018612079561
0.0178 6367.462129963516 1.000241680878267 1.54647404868158 275.3961552371433 3.37672763173784
0.0179 6367.477652011764 1.000241223067264 1.546392793257129 275.2952619235347 3.352509856068412
0.018 6367.493225868034 1.000240764748602 1.546311496335162 275.1940318577807 3.328365941218903
0.0181 6367.508851559352 1.000240305928539 1.546230157903919 275.0924648642089 3.304296536391749
0.0182 6367.524529112755 1.000239846613322 1.54614877795248 274.9905607670934 3.280302283819698
0.0183 6367.540258555285 1.000239386809185 1.546067356470743 274.8883193906494 3.25638381873344
0.0184 6367.556039913997 1.000238926522353 1.54598589344933 274.7857405590211 3.232541769328587
0.0185 6367.571873215953 1.000238465759034 1.545904388879764 274.6828240963054 3.208776756741601
0.0186 6367.587758488224 1.000238004525427 1.54582284275426 274.5795698265459 3.185089395019418
0.0187 6367.603695757886 1.000237542827714 1.545741255065926 274.4759775737392 3.161480291092505
0.0188 6367.619685052025 1.000237080672069 1.54565962580854 274.3720471618343 3.137950044747199
0.0189 6367.635726397733 1.000236618064647 1.545577954976794 274.267778414733 3.114499248598739
0.019 6367.651819822106 1.000236155011595 1.545496242566079 274.1631711563135 3.09112848807025
0.0191 6367.667965352245 1.000235691519043 1.54541448857259 274.0582252104067 3.067838341361754
0.0192 6367.684163015259 1.000235227593108 1.545332692993304 273.9529404008139 3.044629379429167
0.0193 6367.700412838261 1.000234763239893 1.54525085582598 273.8473165513009 3.021502165958688
0.0194 6367.716714848367 1.000234298465489 1.545168977069122 273.7413534856158 2.998457257347059
0.0195 6367.733069072696 1.000233833275968 1.545087056722068 273.6350510274773 2.975495202676013
0.0196 6367.749475538371 1.000233367677392 1.545005094784837 273.5284090005861 2.952616543692589
0.0197 6367.765934272516 1.000232901675806 1.54492309125829 273.421427228643 2.929821814791299
0.0198 6367.78244530226 1.000232435277241 1.544841046144015 273.3141055353075 2.907111542984398
0.0199 6367.799008654732 1.000231968487714 1.54475895944436 273.2064437442449 2.884486247891793
0.02 6367.815624357061 1.000231501313224 1.544676831162427 273.0984416791028 2.861946441716496
0.0201 6367.832292436378 1.000231033759758 1.544594661302107 272.9900991635408 2.839492629232008
0.0202 6367.849012919814 1.000230565833285 1.544512449867983 272.8814160212063 2.817125307759235
0.0203 6367.8657858345 1.000230097539761 1.544430196865433 272.772392075747 2.794844967151571
