#theta R n z T P_w
0 6365.5 1.000290509166931 1.560324351282931 288.15 3.921897523041977
0.0001 6365.506698014227 1.000290289688753 1.560245125269798 288.1064629075221 3.910915963143401
0.0002 6365.513446472553 1.000290068740034 1.560165882714053 288.0625979284031 3.899879022001516
0.0003 6365.520245385755 1.000289846324328 1.560086623496477 288.018404992595 3.888787238605149
0.0004 6365.527094764686 1.00028962244521 1.560007347498501 287.9738840295416 3.877641154069506
0.0005 6365.533994620278 1.000289397106275 1.559928054602014 287.92903496819 3.866441311601663
0.0006000000000000001 6365.540944963542 1.000289170311139 1.55984874468952 287.8838577369787 3.855188256459977
0.0007 6365.547945805561 1.000288942063438 1.559769417644101 287.8383522638559 3.843882535920756
0.0008 6365.554997157499 1.000288712366829 1.559690073349319 287.7925184762552 3.83252469923447
0.0009000000000000001 6365.562099030593 1.000288481224988 1.559610711689381 287.7463563011432 3.821115297599457
0.001 6365.569251436158 1.000288248641611 1.559531332548893 287.6998656649724 3.809654884112012
0.0011 6365.576454385583 1.000288014620415 1.559451935813143 287.6530464937103 3.798144013735427
0.0012 6365.583707890331 1.000287779165134 1.559372521367899 287.6058987128457 3.786583243262988
0.0013 6365.591011961943 1.000287542279527 1.559293089099397 287.5584222473707 3.774973131275064
0.0014 6365.59836661203 1.000287303967366 1.559213638894533 287.5106170218045 3.763314238106227
0.0015 6365.605771852281 1.000287064232448 1.559134170640649 287.4624829601756 3.751607125802128
0.0016 6365.613227694455 1.000286823078585 1.559054684225673 287.4140199860398 3.739852358084903
0.0017 6365.620734150389 1.00028658050961 1.558975179537988 287.3652280224736 3.728050500312708
0.0018 6365.628291231987 1.000286336529377 1.558895656466583 287.3161069920869 3.716202119443448
0.0019 6365.635898951231 1.000286091141755 1.558816114900919 287.2666568169988 3.704307783989823
0.002 6365.643557320172 1.000285844350634 1.558736554731014 287.2168774188789 3.692368063989966
0.0021 6365.651266350937 1.000285596159924 1.558656975847363 287.1667687189123 3.680383530959449
0.0022 6365.65902605572 1.00028534657355 1.558577378141013 287.1163306378229 3.668354757857434
0.0023 6365.666836446787 1.000285095595459 1.55849776150355 287.0655630958853 3.656282319049821
0.0024 6365.674697536478 1.000284843229615 1.558418125827064 287.0144660128952 3.644166790262473
0.0025 6365.682609337201 1.000284589479998 1.558338471004141 286.9630393081933 3.632008748547033
0.0026 6365.690571861436 1.00028433435061 1.558258796927915 286.9112829006648 3.619808772241006
0.0027 6365.698585121734 1.000284077845469 1.558179103492016 286.8591967087281 3.607567440924988
0.0028 6365.706649130712 1.00028381996861 1.558099390590587 286.8067806503699 3.595285335390932
0.0029 6365.714763901058 1.000283560724088 1.558019658118328 286.7540346431218 3.582963037596413
0.003 6365.722929445531 1.000283300115973 1.557939905970346 286.7009586040484 3.570601130621671
0.0031 6365.731145776957 1.000283038148354 1.557860134042422 286.6475524497768 3.558200198636237
0.0032 6365.73941290823 1.000282774825338 1.557780342230724 286.5938160965023 3.545760826859909
0.0033 6365.747730852314 1.000282510151047 1.557700530431978 286.5397494599596 3.533283601515461
0.0034 6365.756099622238 1.000282244129621 1.557620698543426 286.4853524554513 3.520769109795026
0.0035 6365.764519231102 1.000281976765219 1.557540846462802 286.4306249978371 3.508217939816803
0.0036 6365.772989692069 1.000281708062014 1.557460974088348 286.3755670015506 3.495630680588533
0.0037 6365.781511018373 1.000281438024197 1.557381081318872 286.3201783805765 3.483007921961416
0.0038 6365.790083223311 1.000281166655975 1.55730116805364 286.2644590484796 3.470350254596184
0.0039 6365.798706320247 1.000280893961573 1.557221234192427 286.208408918393 3.457658269919627
0.004 6365.807380322613 1.00028061994523 1.557141279635531 286.1520279030186 3.444932560083815
0.0041 6365.816105243904 1.000280344611203 1.557061304283787 286.0953159146264 3.432173717925282
0.004200000000000001 6365.82488109768 1.000280067963764 1.556981308038526 286.0382728650787 3.419382336929483
0.0043 6365.833707897569 1.000279790007201 1.556901290801549 285.9808986658003 3.406559011183235
0.0044 6365.84258565726 1.000279510745819 1.556821252475201 285.9231932278079 3.39370433534043
0.004500000000000001 6365.85151439051 1.000279230183937 1.556741192962346 285.865156461687 3.380818904575799
0.0046 6365.860494111134 1.000278948325891 1.556661112166346 285.8067882776267 3.367903314551818
0.0047 6365.869524833017 1.000278665176031 1.556581009991094 285.7480885853905 3.354958161371145
0.0048 6365.878606570103 1.000278380738723 1.556500886340929 285.6890572943283 3.341984041538236
0.0049 6365.887739336402 1.000278095018347 1.556420741120777 285.6296943133879 3.328981551920928
0.005 6365.896923145983 1.000277808019301 1.556340574236052 285.5699995511089 3.31595128970808
0.0051 6365.90615801298 1.000277519745995 1.556260385592653 285.5099729156294 3.302893852369825
0.005200000000000001 6365.915443951589 1.000277230202854 1.556180175097025 285.4496143146733 3.289809837613954
0.0053 6365.924780976065 1.000276939394318 1.556099942656081 285.3889236555746 3.276699843350014
0.0054 6365.934169100728 1.000276647324843 1.556019688177314 285.3279008452708 3.263564467646953
0.005500000000000001 6365.943608339955 1.000276353998897 1.555939411568661 285.2665457902921 3.250404308689549
0.0056 6365.953098708189 1.000276059420962 1.555859112738593 285.204858396772 3.237219964739949
0.0057 6365.962640219927 1.000275763595537 1.555778791596072 285.142838570472 3.224012034101691
0.0058 6365.972232889731 1.000275466527132 1.555698448050653 285.0804862167455 3.210781115071123
0.0059 6365.981876732222 1.000275168220272 1.555618082012313 285.0178012405557 3.197527805900234
0.006 6365.991571762078 1.000274868679495 1.555537693391564 284.9547835464936 3.184252704759447
0.0061 6366.001317994037 1.000274567909353 1.555457282099481 284.8914330387596 3.170956409692921
0.006200000000000001 6366.011115442896 1.00027426591441 1.555376848047584 284.8277496211762 3.157639518580155
0.0063 6366.020964123511 1.000273962699247 1.555296391147914 284.7637331971754 3.144302629092649
0.0064 6366.030864050797 1.000273658268453 1.555215911313108 284.6993836698169 3.130946338656798
0.006500000000000001 6366.040815239725 1.000273352626634 1.555135408456213 284.6347009417881 3.117571244413093
0.0066 6366.050817705322 1.000273045778405 1.555054882490856 284.5696849154095 3.104177943176574
0.0067 6366.060871462675 1.000272737728398 1.554974333331163 284.5043354926119 3.090767031391281
0.0068 6366.070976526928 1.000272428481254 1.55489376089173 284.4386525749709 3.077339105096911
0.006900000000000001 6366.081132913278 1.000272118041628 1.554813165087751 284.37263606369 3.063894759884575
0.007 6366.091340636983 1.000271806414187 1.554732545834878 284.3062858596121 3.050434590858681
0.0071 6366.101599713353 1.000271493603609 1.554651903049281 284.2396018632074 3.036959192594061
0.007200000000000001 6366.111910157753 1.000271179614586 1.554571236647705 284.1725839746035 3.02346915910154
0.0073 6366.122271985608 1.000270864451819 1.554490546547312 284.1052320935495 3.009965083780433
0.0074 6366.132685212392 1.000270548120024 1.554409832665872 284.0375461194516 2.996447559385419
0.007500000000000001 6366.143149853639 1.000270230623926 1.554329094921591 283.9695259513495 2.982917177981605
0.0076 6366.153665924932 1.000269911968263 1.554248333233289 283.9011714879401 2.969374530909131
0.0077 6366.164233441912 1.000269592157781 1.55416754752023 283.8324826275715 2.955820208741933
0.007800000000000001 6366.17485242027 1.000269271197241 1.554086737702234 283.7634592682429 2.942254801247792
0.007900000000000001 6366.185522875754 1.000268949091414 1.554005903699582 283.6941013075988 2.928678897347314
0.008 6366.196244824162 1.00026862584508 1.553925045433157 283.6244086429468 2.915093085077652
0.0081 6366.207018281346 1.000268301463032 1.553844162824316 283.5543811712517 2.901497951551653
0.008200000000000001 6366.21784326321 1.00026797595007 1.553763255794913 283.4840187891353 2.887894082918282
0.0083 6366.228719785709 1.000267649311009 1.553682324267383 283.4133213928943 2.874282064326578
0.008400000000000001 6366.239647864849 1.000267321550671 1.553601368164635 283.3422888784825 2.86066247988283
0.008500000000000001 6366.250627516691 1.000266992673888 1.553520387410094 283.2709211415107 2.847035912611353
0.0086 6366.261658757342 1.000266662685504 1.553439381927749 283.1992180772767 2.833402944420976
0.008700000000000001 6366.272741602964 1.000266331590371 1.55335835164206 283.1271795807351 2.819764156060361
0.008800000000000001 6366.283876069766 1.000265999393352 1.553277296478034 283.0548055465214 2.806120127083588
0.0089 6366.295062174009 1.000265666099319 1.553196216361203 282.9820958689401 2.792471435809111
0.009000000000000001 6366.306299932004 1.000265331713151 1.553115111217613 282.9090504419763 2.778818659283326
0.0091 6366.317589360107 1.00026499623974 1.553033980973824 282.835669159302 2.765162373243115
0.0092 6366.328930474729 1.000264659683985 1.552952825556945 282.7619519142639 2.751503152075223
0.009300000000000001 6366.340323292325 1.000264322050795 1.552871644894565 282.6878985998895 2.7378415687791
0.0094 6366.351767829399 1.000263983345085 1.552790438914849 282.6135091089049 2.724178194932036
0.0095 6366.363264102507 1.000263643571783 1.552709207546417 282.5387833337048 2.710513600645724
0.009600000000000001 6366.374812128248 1.000263302735822 1.552627950718483 282.4637211663888 2.696848354534936
0.0097 6366.386411923268 1.000262960842144 1.552546668360739 282.3883224987547 2.683183023678704
0.0098 6366.398063504266 1.000262617895699 1.552465360403415 282.3125872222694 2.669518173577431
0.009900000000000001 6366.40976688798 1.000262273901448 1.55238402677726 282.2365152281276 2.655854368126199
0.01 6366.4215220912 1.000261928864356 1.55230266741355 282.1601064071991 2.642192169567928
0.0101 6366.433329130758 1.000261582789397 1.55222128224407 282.0833606500699 2.628532138463753
0.0102 6366.445188023536 1.000261235681554 1.552139871201161 282.0062778470186 2.614874833651884
0.0103 6366.457098786455 1.000260887545816 1.552058434217674 281.9288578880399 2.601220812215083
0.0104 6366.469061436488 1.000260538387179 1.551976971226978 281.8511006628272 2.587570629440952
0.0105 6366.481075990648 1.000260188210647 1.55189548216294 281.77300606079 2.57392483878868
0.0106 6366.493142465994 1.000259837021232 1.55181396696 281.6945739710421 2.560283991850766
0.0107 6366.50526087963 1.00025948482395 1.551732425553096 281.615804282408 2.546648638318044
0.0108 6366.517431248701 1.000259131623827 1.551650857877695 281.5366968834459 2.533019325947934
0.0109 6366.529653590398 1.000258777425892 1.551569263869789 281.4572516624124 2.519396600522652
0.011 6366.541927921952 1.000258422235185 1.551487643465895 281.3774685073103 2.505781005821889
0.0111 6366.554254260641 1.000258066056748 1.551405996603051 281.2973473058345 2.492173083578439
0.0112 6366.566632623782 1.000257708895632 1.55132432321883 281.2168879454201 2.47857337345123
0.0113 6366.579063028734 1.000257350756892 1.551242623251317 281.1360903132303 2.464982412988428
0.0114 6366.591545492899 1.000256991645591 1.551160896639098 281.0549542961561 2.451400737592778
0.0115 6366.604080033721 1.000256631566795 1.551079143321356 280.9734797808109 2.437828880486177
0.0116 6366.616666668684 1.000256270525578 1.550997363237719 280.8916666535537 2.424267372679397
0.0117 6366.629305415311 1.000255908527018 1.550915556328401 280.8095148004776 2.410716742936067
0.0118 6366.64199629117 1.000255545576199 1.550833722534088 280.7270241073978 2.397177517736943
0.0119 6366.654739313863 1.000255181678211 1.550751861796012 280.6441944598931 2.383650221253139
0.012 6366.667534501036 1.000254816838146 1.55066997405597 280.5610257432644 2.370135375305962
0.0121 6366.680381870374 1.000254451061104 1.550588059256188 280.4775178425701 2.35663349933959
0.0122 6366.6932814396 1.000254084352189 1.550506117339499 280.3936706426028 2.343145110384328
0.0123 6366.706233226476 1.000253716716507 1.550424148249236 280.3094840279067 2.32967072302682
0.0124 6366.719237248802 1.000253348159172 1.550342151929251 280.2249578827895 2.316210849379495
0.0125 6366.732293524417 1.000252978685301 1.550260128323891 280.1400920912869 2.302765999042712
0.0126 6366.745402071198 1.000252608300014 1.55017807737811 280.054886537216 2.289336679081291
0.0127 6366.758562907057 1.000252237008437 1.55009599903726 279.9693411041279 2.275923393985303
0.0128 6366.771776049946 1.000251864815697 1.550013893247319 279.883455675349 2.262526645645157
0.0129 6366.785041517853 1.000251491726928 1.549931759954747 279.7972301339572 2.24914693331667
0.013 6366.798359328799 1.000251117747266 1.549849599106536 279.7106643628061 2.235784753593807
0.0131 6366.811729500847 1.000250742881849 1.549767410650186 279.623758244495 2.222440600373422
0.0132 6366.825152052092 1.000250367135821 1.549685194533728 279.5365116614042 2.20911496483031
0.0133 6366.838627000664 1.000249990514328 1.549602950705709 279.4489244956839 2.195808335385202
0.0134 6366.85215436473 1.000249613022519 1.549520679115187 279.3609966292532 2.182521197674872
0.0135 6366.865734162493 1.000249234665544 1.54943837971178 279.2727279437953 2.169254034521629
0.0136 6366.879366412187 1.00024885544856 1.549356052445577 279.1841183207861 2.15600732590842
0.0137 6366.89305113208 1.000248475376722 1.549273697267208 279.0951676414769 2.142781548947048
0.0138 6366.906788340479 1.000248094455191 1.549191314127825 279.0058757868886 2.129577177848507
0.0139 6366.920578055719 1.000247712689129 1.549108902979069 278.9162426378292 2.116394683897116
0.014 6366.934420296169 1.000247330083698 1.549026463773153 278.8262680748998 2.103234535423116
0.0141 6366.948315080234 1.000246946644066 1.5489439964628 278.7359519784767 2.090097197772113
0.0142 6366.962262426348 1.0002465623754 1.548861501001182 278.6452942287355 2.076983133280879
0.0143 6366.97626235298 1.000246177282871 1.548778977342052 278.5542947056327 2.063892801247384
0.0144 6366.990314878627 1.000245791371649 1.548696425439663 278.4629532889243 2.050826657906299
0.0145 6367.004420021823 1.000245404646907 1.548613845248781 278.3712698581529 2.037785156400508
0.0146 6367.018577801128 1.00024501711382 1.548531236724682 278.2792442926665 2.02476874675716
0.0147 6367.032788235137 1.000244628777561 1.548448599823184 278.1868764716118 2.011777875860632
0.0148 6367.047051342471 1.00024423964331 1.548365934500554 278.0941662739405 1.998812987427481
0.0149 6367.061367141785 1.000243849716243 1.548283240713631 278.0011135783974 1.985874521979221
0.015 6367.075735651763 1.000243459001537 1.548200518419787 277.9077182635382 1.972962916819555
0.0151 6367.090156891118 1.000243067504372 1.548117767576829 277.8139802077352 1.960078606010213
0.0152 6367.104630878592 1.000242675229928 1.548034988143114 277.7198992891539 1.94722202034307
0.0153 6367.119157632957 1.000242282183384 1.547952180077525 277.6254753857824 1.934393587319897
0.0154 6367.133737173012 1.00024188836992 1.547869343339453 277.5307083754195 1.921593731126732
0.0155 6367.148369517588 1.000241493794717 1.54778647788875 277.4355981356811 1.908822872611015
0.0156 6367.163054685539 1.000241098462955 1.547703583685833 277.3401445439994 1.896081429258233
0.0157 6367.17779269575 1.000240702379815 1.547620660691602 277.2443474776236 1.883369815168902
0.0158 6367.192583567133 1.000240305550475 1.547537708867465 277.1482068136373 1.870688441038223
0.0159 6367.207427318624 1.000239907980116 1.547454728175336 277.0517224289468 1.858037714132122
0.016 6367.222323969189 1.000239509673917 1.547371718577646 276.9548942002692 1.845418038263698
0.0161 6367.237273537821 1.000239110637057 1.547288680037311 276.8577220041619 1.832829813775399
0.0162 6367.252276043536 1.000238710874712 1.547205612517759 276.7602057170169 1.820273437516864
0.0163 6367.267331505377 1.000238310392061 1.547122515982912 276.6623452150487 1.807749302822386
0.0164 6367.282439942413 1.000237909194278 1.54703939039723 276.5641403743124 1.795257799492521
0.0165 6367.297601373738 1.000237507286538 1.54695623572563 276.4655910707032 1.782799313773736
0.0166 6367.31281581847 1.000237104674015 1.546873051933548 276.3666971799452 1.77037422833693
0.0167 6367.328083295752 1.00023670136188 1.546789838986911 276.2674585776143 1.757982922260779
0.0168 6367.343403824751 1.000236297355305 1.546706596852158 276.1678751391154 1.74562577100948
0.0169 6367.35877742466 1.000235892659458 1.546623325496202 276.0679467397111 1.733303146417508
0.017 6367.374204114692 1.000235487279507 1.546540024886477 275.9676732545048 1.721015416668812
0.0171 6367.389683914083 1.000235081220615 1.546456694990908 275.8670545584577 1.708762946280772
0.0172 6367.405216842098 1.000234674487947 1.546373335777892 275.7660905263655 1.696546096083442
0.0173 6367.420802918016 1.000234267086663 1.546289947216348 275.664781032894 1.684365223206355
0.0174 6367.436442161144 1.000233859021923 1.546206529275666 275.5631259525611 1.6722206810592
0.0175 6367.452134590812 1.000233450298883 1.54612308192574 275.4611251597192 1.66011281931295
0.0176 6367.467880226367 1.000233040922697 1.546039605136929 275.3587785286144 1.648041983890474
0.0177 6367.48367908718 1.000232630898516 1.545956098880112 275.2560859333329 1.636008516944142
0.0178 6367.499531192641 1.000232220231488 1.545872563126653 275.1530472478311 1.624012756843644
0.0179 6367.515436562166 1.000231808926761 1.545788997848378 275.0496623459234 1.612055038159284
0.018 6367.531395215185 1.000231396989475 1.545705403017612 274.9459311013001 1.600135691649092
0.0181 6367.547407171151 1.000230984424773 1.545621778607152 274.8418533875155 1.588255044242874
0.0182 6367.563472449539 1.000230571237788 1.545538124590319 274.7374290779939 1.576413419028692
0.0183 6367.579591069841 1.000230157433657 1.545454440940853 274.6326580460353 1.564611135239717
0.0184 6367.595763051567 1.000229743017506 1.545370727633025 274.5275401648158 1.552848508240762
0.0185 6367.611988414249 1.000229327994465 1.545286984641558 274.4220753073813 1.541125849514558
0.0186 6367.628267177434 1.000228912369654 1.545203211941673 274.3162633466771 1.529443466652341
0.0187 6367.644599360692 1.000228496148193 1.545119409509036 274.210104155501 1.517801663336297
0.0188 6367.660984983608 1.000228079335197 1.545035577319813 274.1035976065499 1.506200739332874
0.0189 6367.677424065785 1.000227661935778 1.54495171535062 273.9967435723969 1.494640990478624
0.019 6367.693916626844 1.000227243955041 1.544867823578599 273.8895419255144 1.483122708671609
0.0191 6367.710462686423 1.000226825398091 1.544783901981301 273.7819925382508 1.471646181858062
0.0192 6367.727062264176 1.000226406270025 1.544699950536772 273.674095282854 1.460211694024541
0.0193 6367.743715379775 1.000225986575938 1.544615969223514 273.5658500314652 1.448819525187277
0.0194 6367.760422052907 1.00022556632092 1.544531958020535 273.4572566561077 1.437469951381323
0.0195 6367.777182303275 1.000225145510055 1.544447916907248 273.3483150287101 1.42616324465382
0.0196 6367.7939961506 1.000224724148423 1.544363845863583 273.2390250211005 1.414899673054524
0.0197 6367.810863614614 1.000224302241101 1.544279744869908 273.1293865050064 1.403679500627358
0.0198 6367.827784715068 1.000223879793158 1.544195613907044 273.0193993520551 1.39250298740236
0.0199 6367.844759471726 1.000223456809662 1.544111452956282 272.9090634337789 1.381370389388631
0.02 6367.861787904368 1.000223033295671 1.544027261999369 272.7983786216099 1.37028195856647
0.0201 6367.878870032784 1.000222609256241 1.543943041018517 272.6873447869033 1.359237942882872
0.0202 6367.896005876783 1.000222184696422 1.543858789996378 272.5759618009077 1.348238586242081
0.0203 6367.913195456186 1.000221759621258 1.543774508916052 272.4642295347893 1.337284128501881
