#theta R n z T P_w
0 6365.5 1.000327316202768 1.560324351282931 288.15 12.10672713634697
0.0001 6365.506698014227 1.000327004780398 1.56025383902771 288.1064629075221 12.07282753839919
0.0002 6365.513440925176 1.000326691651018 1.560183291634757 288.0626339863564 12.03878495297038
0.0003 6365.520228755426 1.000326376820658 1.560112708906946 288.0185130897329 12.00460077502071
0.0004 6365.527061527682 1.000326060295377 1.560042090648105 287.9741000700654 11.97027640439117
0.0005 6365.533939264778 1.000325742081263 1.559971436663077 287.9293947789405 11.93581324571609
0.0006000000000000001 6365.540861989674 1.000325422184432 1.559900746757822 287.8843970671168 11.90121270834461
0.0007 6365.547829725452 1.000325100611027 1.559830020739207 287.8391067845608 11.86647620628903
0.0008 6365.55484249532 1.000324777367221 1.559759258415145 287.7935237804176 11.83160515812263
0.0009000000000000001 6365.561900322613 1.000324452459214 1.559688459594526 287.7476479030159 11.79660098690473
0.001 6365.569003230784 1.000324125893234 1.559617624087363 287.7014789999047 11.7614651201277
0.0011 6365.576151243412 1.000323797675535 1.559546751704514 287.6550169178225 11.72619898961405
0.0012 6365.583344384197 1.000323467812402 1.559475842257969 287.608261502722 11.69080403145376
0.0013 6365.59058267696 1.000323136310143 1.559404895560709 287.5612125997576 11.65528168591427
0.0014 6365.597866145646 1.000322803175094 1.559333911426696 287.5138700533033 11.61963339737262
0.0015 6365.605194814314 1.000322468413619 1.55926288967098 287.4662337069589 11.58386061423819
0.0016 6365.612568707147 1.000322132032108 1.559191830109538 287.4183034035435 11.5479647888662
0.0017 6365.619987848445 1.000321794036976 1.559120732559446 287.3700789851081 11.51194737748435
0.0018 6365.627452262627 1.000321454434666 1.559049596838704 287.321560292923 11.4758098401013
0.0019 6365.63496197423 1.000321113231645 1.558978422766472 287.2727471675079 11.43955364044592
0.002 6365.642517007905 1.000320770434407 1.558907210162777 287.2236394486198 11.40318024587511
0.0021 6365.650117388423 1.000320426049471 1.55883595884881 287.1742369752532 11.36669112729037
0.0022 6365.657763140666 1.000320080083381 1.558764668646667 287.1245395856694 11.33008775907579
0.0023 6365.665454289638 1.000319732542707 1.558693339379546 287.0745471173553 11.29337161898341
0.0024 6365.673190860449 1.000319383434042 1.558621970871688 287.0242594070827 11.25654418809237
0.0025 6365.680972878328 1.000319032764006 1.558550562948256 286.9736762908664 11.21960695069375
0.0026 6365.688800368616 1.000318680539241 1.558479115435562 286.9227976039941 11.18256139422736
0.0027 6365.696673356765 1.000318326766415 1.558407628160902 286.8716231810266 11.14540900919636
0.0028 6365.70459186834 1.000317971452218 1.558336100952616 286.8201528557914 11.10815128907756
0.0029 6365.712555929015 1.000317614603366 1.558264533640033 286.7683864614008 11.07078973024846
0.003 6365.720565564578 1.000317256226598 1.558192926053604 286.7163238302459 11.03332583189692
0.0031 6365.728620800922 1.000316896328674 1.558121278024766 286.6639647940082 10.99576109594344
0.0032 6365.736721664051 1.00031653491638 1.558049589386015 286.6113091836659 10.95809702695879
0.0033 6365.744868180081 1.000316171996523 1.557977859970844 286.5583568294759 10.92033513206457
0.0034 6365.75306037523 1.000315807575934 1.557906089613884 286.5051075610035 10.88247692086736
0.0035 6365.761298275827 1.000315441661464 1.557834278150742 286.4515612071222 10.84452390537136
0.0036 6365.769581908306 1.00031507425999 1.557762425418056 286.3977175960139 10.80647759989092
0.0037 6365.777911299205 1.000314705378408 1.557690531253611 286.3435765551689 10.76833952096278
0.0038 6365.786286475171 1.000314335023636 1.557618595496122 286.2891379113915 10.73011118726234
0.0039 6365.794707462952 1.000313963202613 1.557546617985458 286.2344014908125 10.69179411952384
0.004 6365.803174289401 1.000313589922302 1.557474598562514 286.1793671188942 10.65338984045603
0.0041 6365.811686981473 1.000313215189685 1.557402537069219 286.1240346204253 10.6148998746495
0.004200000000000001 6365.820245566228 1.000312839011763 1.55733043334857 286.0684038195203 10.57632574848784
0.0043 6365.828850070824 1.000312461395561 1.557258287244685 286.0124745396437 10.53766899007521
0.0044 6365.837500522525 1.000312082348123 1.557186098602651 285.9562466035858 10.49893112913069
0.004500000000000001 6365.846196948692 1.000311701876512 1.557113867268673 285.8997198335045 10.46011369692761
0.0046 6365.854939376784 1.000311319987811 1.557041593090057 285.8428940509015 10.42121822618753
0.0047 6365.863727834363 1.000310936689124 1.556969275915121 285.7857690766399 10.3822462510028
0.0048 6365.872562349087 1.000310551987573 1.55689691559328 285.7283447309327 10.34319930673856
0.0049 6365.881442948713 1.0003101658903 1.556824511975017 285.6706208333661 10.30407892995883
0.005 6365.890369661093 1.000309778404466 1.556752064911899 285.6125972028939 10.26488665833228
0.0051 6365.899342514178 1.000309389537248 1.556679574256577 285.5542736578431 10.22562403054581
0.005200000000000001 6365.908361536012 1.000308999295846 1.556607039862764 285.49565001592 10.18629258621807
0.0053 6365.917426754736 1.000308607687473 1.556534461585272 285.4367260942162 10.14689386581275
0.0054 6365.926538198584 1.000308214719364 1.556461839279977 285.3775017092024 10.10742941054383
0.005500000000000001 6365.935695895885 1.000307820398768 1.55638917280387 285.3179766767465 10.06790076229654
0.0056 6365.944899875059 1.000307424732955 1.556316462015044 285.2581508121133 10.02830946353622
0.0057 6365.95415016462 1.00030702772921 1.556243706772607 285.1980239299704 9.988657057221152
0.0058 6365.963446793172 1.000306629394834 1.55617090693683 285.1375958443826 9.948945086707266
0.0059 6365.972789789411 1.000306229737148 1.556098062369031 285.0768663688294 9.909175095668537
0.006 6365.982179182122 1.000305828763485 1.556025172931675 285.015835316205 9.869348628005424
0.0061 6365.991615000181 1.000305426481197 1.55595223848828 284.9545024988241 9.829467227757128
0.006200000000000001 6366.001097272551 1.00030502289765 1.555879258903494 284.8928677284165 9.789532439006075
0.0063 6366.010626028285 1.000304618020228 1.555806234043056 284.83093081615 9.749545805801523
0.0064 6366.020201296521 1.000304211856328 1.55573316377382 284.7686915726134 9.70950887205621
0.006500000000000001 6366.029823106486 1.000303804413364 1.555660047963692 284.7061498078396 9.66942318146973
0.0066 6366.039491487491 1.000303395698762 1.55558688648177 284.6433053313057 9.629290277436478
0.0067 6366.049206468934 1.000302985719965 1.555513679198199 284.5801579519274 9.589111702949843
0.0068 6366.058968080298 1.000302574484429 1.555440425984247 284.5167074780646 9.548889000513949
0.006900000000000001 6366.068776351146 1.000302161999625 1.555367126712307 284.4529537175512 9.508623712070266
0.007 6366.078631311128 1.000301748273036 1.555293781255907 284.3888964776651 9.468317378886622
0.0071 6366.088532989977 1.000301333312161 1.555220389489626 284.3245355651524 9.42797154148003
0.007200000000000001 6366.098481417503 1.000300917124511 1.555146951289212 284.2598707862329 9.387587739528062
0.0073 6366.108476623601 1.000300499717608 1.55507346653154 284.1949019465945 9.347167511772893
0.0074 6366.118518638246 1.000300081098989 1.554999935094587 284.1296288513989 9.306712395932767
0.007500000000000001 6366.128607491492 1.000299661276204 1.554926356857439 284.0640513052994 9.266223928620692
0.0076 6366.138743213472 1.000299240256812 1.554852731700332 283.9981691124289 9.225703645244819
0.0077 6366.148925834397 1.000298818048386 1.554779059504614 283.931982076418 9.185153079927096
0.007800000000000001 6366.159155384556 1.000298394658512 1.554705340152768 283.8654900003829 9.144573765403774
0.007900000000000001 6366.169431894315 1.000297970094783 1.55463157352841 283.7986926869552 9.1039672329512
0.008 6366.179755394112 1.000297544364808 1.554557759516289 283.7315899382696 9.063335012286322
0.0081 6366.190125914469 1.000297117476203 1.55448389800225 283.6641815559527 9.022678631467409
0.008200000000000001 6366.200543485974 1.000296689436595 1.554409988873333 283.5964673411698 8.981999616830507
0.0083 6366.211008139293 1.000296260253624 1.554336032017674 283.5284470945957 8.941299492879393
0.008400000000000001 6366.221519905166 1.000295829934937 1.554262027324548 283.4601206164201 8.900579782197196
0.008500000000000001 6366.232078814404 1.000295398488191 1.554187974684359 283.391487706372 8.859842005368522
0.0086 6366.242684897889 1.000294965921053 1.55411387398872 283.322548163719 8.819087680887428
0.008700000000000001 6366.253338186575 1.0002945322412 1.554039725130284 283.2533017872619 8.778318325062047
0.008800000000000001 6366.264038711486 1.000294097456316 1.553965528002924 283.1837483753401 8.737535451926361
0.0089 6366.274786503717 1.000293661574094 1.55389128250163 283.113887725838 8.696740573152022
0.009000000000000001 6366.285581594431 1.000293224602237 1.553816988522494 283.0437196361967 8.655935197963668
0.0091 6366.296424014858 1.000292786548453 1.553742645962843 282.9732439034254 8.615120833054252
0.0092 6366.307313796296 1.00029234742046 1.553668254721083 282.9024603240786 8.574298982479911
0.009300000000000001 6366.318250970111 1.000291907225983 1.553593814696798 282.8313686942787 8.533471147582494
0.0094 6366.329235567734 1.000291465972753 1.553519325790707 282.7599688097288 8.492638826905157
0.0095 6366.340267620662 1.000291023668509 1.553444787904695 282.6882604657002 8.451803516094545
0.009600000000000001 6366.351347160454 1.000290580320996 1.553370200941766 282.6162434570505 8.410966707820066
0.0097 6366.362474218736 1.000290135937965 1.553295564806166 282.5439175782175 8.370129891679785
0.0098 6366.373648827196 1.000289690527174 1.55322087940317 282.4712826232252 8.329294554113247
0.009900000000000001 6366.384871017583 1.000289244096385 1.553146144639304 282.3983383857075 8.288462178324345
0.01 6366.396140821709 1.000288796653369 1.553071360422177 282.3250846588902 8.247634244181043
0.0101 6366.407458271448 1.000288348205896 1.552996526660665 282.2515212355855 8.206812228122146
0.0102 6366.418823398732 1.000287898761747 1.552921643264672 282.1776479082449 8.165997603096985
0.0103 6366.430236235552 1.000287448328705 1.55284671014532 282.103464468912 8.125191838449409
0.0104 6366.44169681396 1.000286996914555 1.552771727214929 282.0289707092578 8.084396399847957
0.0105 6366.453205166065 1.00028654452709 1.552696694386938 281.9541664205752 8.043612749193258
0.0106 6366.464761324032 1.000286091174105 1.552621611575911 281.8790513937905 8.002842344535381
0.0107 6366.476365320085 1.000285636863397 1.552546478697653 281.8036254194457 7.962086639975381
0.0108 6366.488017186501 1.000285181602769 1.552471295669064 281.7278882877457 7.921347085602275
0.0109 6366.499716955614 1.000284725400024 1.55239606240824 281.6518397885114 7.880625127379076
0.011 6366.511464659811 1.000284268262968 1.55232077883445 281.5754797112266 7.839922207080146
0.0111 6366.523260331535 1.000283810199411 1.552245444868105 281.4988078450205 7.799239762193726
0.0112 6366.535104003279 1.000283351217163 1.552170060430782 281.421823978685 7.758579225843736
0.0113 6366.546995707588 1.000282891324038 1.55209462544522 281.3445279006754 7.717942026702342
0.0114 6366.558935477061 1.000282430527848 1.552019139835362 281.266919399104 7.677329588899766
0.0115 6366.570923344345 1.000281968836409 1.551943603526271 281.188998261758 7.636743331946806
0.0116 6366.582959342137 1.000281506257536 1.551868016444181 281.1107642761111 7.596184670654397
0.0117 6366.595043503185 1.000281042799046 1.551792378516525 281.0322172292944 7.555655015032044
0.0118 6366.607175860286 1.000280578468754 1.551716689671874 280.9533569081431 7.515155770226426
0.0119 6366.61935644628 1.000280113274478 1.551640949839965 280.8741830991793 7.474688336426524
0.012 6366.63158529406 1.000279647224032 1.551565158951705 280.7946955886117 7.43425410877839
0.0121 6366.64386243656 1.000279180325232 1.551489316939207 280.7148941623594 7.393854477312233
0.0122 6366.656187906763 1.000278712585892 1.551413423735678 280.63477860604 7.353490826851742
0.0123 6366.668561737695 1.000278244013825 1.551337479275566 280.5543487049812 7.3131645369358
0.0124 6366.680983962427 1.000277774616842 1.551261483494409 280.4736042442272 7.2728769817375
0.0125 6366.693454614071 1.000277304402753 1.551185436329011 280.3925450085384 7.23262952998056
0.0126 6366.705973725784 1.000276833379364 1.551109337717255 280.3111707824031 7.192423544861998
0.0127 6366.718541330763 1.000276361554481 1.551033187598247 280.2294813500379 7.152260383969258
0.0128 6366.731157462249 1.000275888935906 1.550956985912207 280.1474764953813 7.112141399194908
0.0129 6366.743822153519 1.000275415531437 1.550880732600579 280.0651560021237 7.072067936669078
0.013 6366.756535437893 1.000274941348871 1.550804427605944 279.9825196536952 7.032041336671957
0.0131 6366.769297348727 1.000274466395999 1.550728070872032 279.899567233272 6.99206293355542
0.0132 6366.782107919419 1.00027399068061 1.550651662343771 279.8162985237758 6.952134055662246
0.0133 6366.794967183399 1.000273514210487 1.550575201967248 279.7327133079037 6.912256025259863
0.0134 6366.80787517414 1.000273036993411 1.550498689689708 279.6488113680929 6.872430158443368
0.0135 6366.820831925143 1.000272559037156 1.550422125459565 279.5645924865674 6.832657765078551
0.0136 6366.833837469952 1.000272080349491 1.550345509226374 279.4800564453093 6.792940148708707
0.0137 6366.84689184214 1.00027160093818 1.550268840940913 279.3952030260874 6.75327860648997
0.0138 6366.859995075317 1.000271120810983 1.550192120555037 279.3100320104403 6.713674429104781
0.0139 6366.873147203123 1.000270639975652 1.550115348021837 279.2245431796995 6.674128900695251
0.014 6366.886348259233 1.000270158439933 1.550038523295548 279.1387363149837 6.634643298783146
0.0141 6366.899598277352 1.000269676211567 1.549961646331516 279.0526111972107 6.595218894198587
0.0142 6366.912897291215 1.000269193298286 1.549884717086327 278.9661676071031 6.555856951006464
0.0143 6366.926245334588 1.000268709707816 1.549807735517658 278.8794053251767 6.516558726425295
0.0144 6366.939642441266 1.000268225447875 1.549730701584374 278.7923241317698 6.477325470765422
0.0145 6366.953088645074 1.000267740526176 1.549653615246518 278.7049238070198 6.43815842734358
0.0146 6366.966583979862 1.000267254950419 1.549576476465252 278.6172041308986 6.399058832424663
0.0147 6366.980128479509 1.000266768728301 1.549499285202896 278.5291648831889 6.360027915137425
0.0148 6366.99372217792 1.000266281867507 1.549422041422941 278.4408058435196 6.32106689741713
0.0149 6367.007365109024 1.000265794375714 1.549344745090032 278.3521267913424 6.282176993922429
0.015 6367.021057306778 1.000265306260591 1.549267396169941 278.2631275059433 6.243359411968616
0.0151 6367.034798805162 1.000264817529796 1.549189994629626 278.1738077664489 6.204615351458783
0.0152 6367.048589638177 1.000264328190978 1.549112540437168 278.0841673518497 6.165946004823155
0.0153 6367.062429839849 1.000263838251777 1.549035033561797 277.9942060409825 6.127352556940993
0.0154 6367.076319444226 1.000263347719821 1.548957473973926 277.9039236125303 6.088836185070959
0.0155 6367.090258485376 1.000262856602728 1.548879861645039 277.8133198450581 6.050398058797132
0.0156 6367.104246997389 1.000262364908106 1.548802196547833 277.7223945169711 6.01203933994284
0.0157 6367.118285014374 1.00026187264355 1.54872447865613 277.6311474065682 5.973761182525316
0.0158 6367.13237257046 1.000261379816648 1.548646707944848 277.5395782920122 5.935564732675845
0.0159 6367.146509699791 1.00026088643497 1.54856888439012 277.4476869513595 5.89745112858545
0.016 6367.160696436534 1.000260392506079 1.548491007969153 277.3554731625308 5.859421500426559
0.0161 6367.174932814868 1.000259898037523 1.54841307866031 277.2629367033577 5.821476970307171
0.0162 6367.189218868992 1.000259403036841 1.548335096443097 277.1700773515539 5.783618652193848
0.0163 6367.203554633117 1.000258907511554 1.548257061298139 277.0768948847384 5.745847651857305
0.0164 6367.217940141471 1.000258411469174 1.548178973207217 276.9833890804356 5.70816506680891
0.0165 6367.232375428297 1.000257914917199 1.548100832153199 276.8895597160694 5.670571986235514
0.0166 6367.246860527848 1.000257417863113 1.548022638120084 276.7954065689868 5.633069490946861
0.0167 6367.261395474393 1.000256920314385 1.547944391093031 276.7009294164462 5.595658653309371
0.0168 6367.275980302211 1.000256422278471 1.5478660910583 276.6061280356292 5.55834053719014
0.0169 6367.290615045592 1.000255923762813 1.547787738003267 276.5110022036523 5.521116197901499
0.017 6367.305299738838 1.000255424774838 1.547709331916417 276.4155516975551 5.483986682137012
0.0171 6367.320034416259 1.000254925321957 1.54763087278739 276.3197762943181 5.446953027919792
0.0172 6367.334819112176 1.000254425411567 1.547552360606884 276.2236757708569 5.410016264542274
0.0173 6367.349653860917 1.00025392505105 1.547473795366735 276.1272499040396 5.373177412515862
0.0174 6367.364538696818 1.00025342424777 1.547395177059899 276.0304984706812 5.336437483512158
0.0175 6367.379473654223 1.000252923009077 1.547316505680421 275.9334212475495 5.299797480309511
0.0176 6367.394458767481 1.000252421342305 1.547237781223447 275.8360180113767 5.263258396742488
0.0177 6367.409494070946 1.000251919254769 1.547159003685243 275.7382885388478 5.226821217643214
0.0178 6367.42457959898 1.000251416753769 1.547080173063153 275.6402326066299 5.190486918798945
0.0179 6367.439715385945 1.000250913846589 1.547001289355628 275.5418499913548 5.154256466892712
0.018 6367.45490146621 1.000250410540494 1.5469223525622 275.4431404696364 5.118130819457953
0.0181 6367.470137874144 1.000249906842732 1.546843362683509 275.3441038180653 5.08211092482517
0.0182 6367.485424644121 1.000249402760532 1.546764319721272 275.2447398132139 5.04619772207376
0.0183 6367.500761810514 1.000248898301107 1.546685223678276 275.1450482316608 5.010392140990949
0.0184 6367.516149407698 1.00024839347165 1.546606074558413 275.0450288499609 4.974695102012327
0.0185 6367.531587470049 1.000247888279337 1.546526872366655 274.9446814446809 4.939107516186629
0.0186 6367.547076031939 1.000247382731324 1.54644761710904 274.8440057923993 4.903630285128428
0.0187 6367.562615127742 1.000246876834748 1.546368308792661 274.743001669677 4.868264300961382
0.0188 6367.578204791828 1.000246370596727 1.54628894742571 274.6416688531161 4.833010446293497
0.0189 6367.593845058567 1.000245864024359 1.546209533017417 274.5400071193129 4.79786959415581
0.019 6367.609535962324 1.000245357124724 1.546130065578109 274.4380162448932 4.762842607970921
0.0191 6367.62527753746 1.000244849904878 1.546050545119164 274.3356960065124 4.727930341509865
0.0192 6367.641069818328 1.000244342371861 1.545970971652973 274.2330461808673 4.693133638853885
0.0193 6367.656912839283 1.000243834532691 1.545891345193039 274.1300665446605 4.658453334341063
0.0194 6367.672806634669 1.000243326394364 1.545811665753888 274.0267568746539 4.623890252543894
0.0195 6367.688751238823 1.000242817963857 1.545731933351091 273.9231169476506 4.589445208223568
0.0196 6367.704746686077 1.000242309248123 1.545652148001269 273.819146540501 4.555119006293179
0.0197 6367.720793010753 1.000241800254097 1.545572309722075 273.7148454301031 4.520912441779842
0.0198 6367.736890247168 1.00024129098869 1.545492418532196 273.6102133934077 4.486826299789654
0.0199 6367.753038429625 1.000240781458792 1.545412474451367 273.5052502074367 4.452861355477322
0.02 6367.76923759242 1.000240271671271 1.545332477500342 273.3999556492712 4.419018374007012
0.0201 6367.785487769836 1.000239761632971 1.545252427700883 273.2943294960631 4.385298110521833
0.0202 6367.801788996148 1.000239251350716 1.545172325075797 273.1883715250354 4.351701310110355
0.0203 6367.818141305618 1.000238740831304 1.545092169648902 273.082081513482 4.318228707774083
