#theta R n z T P_w
0 6365.5 1.000316580817316 1.560324351282931 288.15 9.719485165799682
0.0001 6365.506698014227 1.000316296212002 1.560251296837324 288.1064629075221 9.692269995616254
0.0002 6365.513442543592 1.000316009952948 1.560178212687402 288.0626234666537 9.664933481134177
0.0003 6365.520233607225 1.000315722045597 1.560105098655374 288.0184815530359 9.637476805215362
0.0004 6365.527071224372 1.000315432495421 1.560031954564433 287.9740370415828 9.609901155005742
0.0005 6365.533955414392 1.000315141307917 1.559958780238565 287.9292898064517 9.582207721845895
0.0006000000000000001 6365.540886196758 1.000314848488608 1.559885575502802 287.8842397210727 9.554397701218095
0.0007 6365.547863591057 1.000314554043045 1.559812340182959 287.8388866581312 9.526472292663726
0.0008 6365.554887616986 1.000314257976806 1.559739074105793 287.7932304895911 9.498432699726017
0.0009000000000000001 6365.561958294357 1.000313960295495 1.559665777098989 287.7472710866776 9.470280129866921
0.001 6365.569075643094 1.000313661004739 1.559592448991133 287.7010083198887 9.442015794401961
0.0011 6365.576239683228 1.000313360110196 1.559519089611624 287.6544420590188 9.413640908441939
0.0012 6365.583450434903 1.000313057617545 1.55944569879091 287.6075721731294 9.3851566908018
0.0013 6365.590707918372 1.000312753532494 1.559372276360226 287.5603985305842 9.356564363948959
0.0014 6365.598012153998 1.000312447860773 1.559298822151785 287.512920999014 9.327865153908199
0.0015 6365.605363162251 1.00031214060814 1.559225335998615 287.4651394453698 9.299060290220043
0.0016 6365.612760963711 1.000311831780377 1.559151817734753 287.4170537358813 9.270151005841614
0.0017 6365.620205579063 1.000311521383289 1.559078267195042 287.3686637360923 9.241138537093653
0.0018 6365.627697029101 1.000311209422708 1.559004684215328 287.3199693108435 9.212024123575221
0.0019 6365.635235334725 1.00031089590449 1.558931068632261 287.2709703242894 9.18280900809946
0.002 6365.642820516938 1.000310580834513 1.558857420283471 287.2216666399048 9.153494436621948
0.0021 6365.650452596851 1.00031026421868 1.558783739007453 287.1720581204671 9.124081658154768
0.0022 6365.65813159568 1.00030994606292 1.558710024643606 287.1221446280796 9.094571924705013
0.0023 6365.665857534743 1.000309626373183 1.558636277032247 287.0719260241716 9.064966491198874
0.0024 6365.673630435463 1.000309305155441 1.558562496014661 287.0214021694927 9.035266615402115
0.0025 6365.681450319364 1.000308982415694 1.558488681432914 286.9705729241363 9.005473557857686
0.0026 6365.689317208074 1.000308658159959 1.558414833130121 286.9194381475157 8.9755885817953
0.0027 6365.697231123323 1.000308332394282 1.558340950950178 286.8679976984002 8.945612953075486
0.0028 6365.705192086941 1.000308005124725 1.558267034737982 286.816251434885 8.915547940095362
0.0029 6365.713200120857 1.000307676357378 1.558193084339317 286.7641992144266 8.885394813732146
0.003 6365.721255247105 1.00030734609835 1.558119099600854 286.7118408938198 8.855154847252049
0.0031 6365.729357487812 1.000307014353771 1.558045080370238 286.6591763292207 8.824829316246424
0.0032 6365.737506865209 1.000306681129796 1.557971026496013 286.606205376141 8.794419498550594
0.0033 6365.745703401622 1.0003063464326 1.557896937827568 286.5529278894541 8.763926674169301
0.0034 6365.753947119478 1.000306010268377 1.557822814215301 286.4993437233946 8.733352125198611
0.0035 6365.762238041296 1.000305672643346 1.55774865551049 286.4454527315769 8.702697135757735
0.0036 6365.770576189696 1.000305333563744 1.55767446156535 286.3912547669764 8.671962991900427
0.0037 6365.778961587393 1.000304993035829 1.557600232232989 286.3367496819482 8.641150981546465
0.0038 6365.787394257195 1.000304651065881 1.557525967367472 286.2819373282322 8.61026239440617
0.0039 6365.795874222008 1.000304307660198 1.557451666823786 286.2268175569478 8.579298521898084
0.004 6365.80440150483 1.000303962825099 1.557377330457828 286.1713902186056 8.548260657076522
0.0041 6365.812976128754 1.000303616566924 1.557302958126385 286.115655163101 8.517150094548997
0.004200000000000001 6365.821598116963 1.000303268892031 1.557228549687302 286.0596122397386 8.485968130410015
0.0043 6365.830267492737 1.000302919806797 1.557154104999201 286.003261297208 8.454716062148318
0.0044 6365.838984279444 1.000302569317618 1.557079623921744 285.9466021836137 8.423395188583658
0.004500000000000001 6365.847748500546 1.000302217430912 1.557005106315442 285.889634746451 8.392006809773903
0.0046 6365.856560179593 1.000301864153112 1.556930552041842 285.8323588326479 8.36055222695791
0.0047 6365.865419340227 1.000301509490669 1.556855960963354 285.7747742885234 8.329032742452712
0.0048 6365.87432600618 1.000301153450057 1.556781332943314 285.7168809598292 8.297449659596095
0.0049 6365.88328020127 1.000300796037762 1.556706667846066 285.6586786917431 8.265804282663018
0.005 6365.892281949406 1.000300437260293 1.556631965536826 285.6001673288641 8.234097916781995
0.0051 6365.901331274581 1.000300077124173 1.556557225881806 285.5413467152233 8.20233186786108
0.005200000000000001 6365.910428200881 1.000299715635942 1.556482448748137 285.4822166942726 8.170507442500938
0.0053 6365.919572752474 1.000299352802161 1.556407634003878 285.4227771089198 8.138625947933322
0.0054 6365.928764953615 1.000298988629403 1.55633278151811 285.3630278015056 8.10668869192757
0.005500000000000001 6365.938004828644 1.000298623124262 1.556257891160725 285.3029686138146 8.074696982716192
0.0056 6365.947292401986 1.000298256293344 1.556182962802712 285.2425993870878 8.04265212892029
0.0057 6365.956627698152 1.000297888143275 1.55610799631587 285.1819199620103 8.010555439462319
0.0058 6365.966010741734 1.000297518680695 1.556032991573107 285.1209301787293 7.978408223494537
0.0059 6365.975441557406 1.000297147912259 1.555957948448148 285.05962987686 7.94621179032102
0.006 6365.984920169928 1.000296775844639 1.555882866815766 284.9980188954677 7.913967449307262
0.0061 6365.994446604138 1.000296402484521 1.555807746551624 284.9360970731035 7.881676509817645
0.006200000000000001 6366.004020884958 1.000296027838608 1.555732587532344 284.8738642477746 7.849340281118808
0.0063 6366.013643037388 1.000295651913613 1.555657389635636 284.8113202569797 7.816960072316948
0.0064 6366.023313086508 1.00029527471627 1.555582152740009 284.7484649376973 7.784537192270385
0.006500000000000001 6366.03303105748 1.000294896253323 1.555506876724964 284.68529812638 7.752072949505315
0.0066 6366.042796975542 1.000294516531529 1.555431561471063 284.6218196589774 7.719568652146764
0.0067 6366.052610866011 1.000294135557663 1.555356206859716 284.5580293709253 7.687025607831234
0.0068 6366.062472754283 1.00029375333851 1.555280812773401 284.4939270971626 7.654445123634525
0.006900000000000001 6366.072382665826 1.000293369880869 1.555205379095501 284.4295126721316 7.621828505990443
0.007 6366.08234062619 1.000292985191553 1.555129905710377 284.3647859297665 7.589177060603576
0.0071 6366.092346660997 1.000292599277388 1.555054392503336 284.2997467035224 7.556492092383055
0.007200000000000001 6366.102400795945 1.00029221214521 1.55497883936075 284.2343948263577 7.523774905352374
0.0073 6366.112503056806 1.00029182380187 1.554903246169865 284.1687301307583 7.4910268025801
0.0074 6366.122653469429 1.00029143425423 1.554827612818934 284.102752448713 7.458249086086928
0.007500000000000001 6366.13285205973 1.000291043509165 1.554751939197209 284.0364616117557 7.425443056785205
0.0076 6366.143098853702 1.000290651573558 1.554676225194872 283.9698574509356 7.392610014383176
0.0077 6366.153393877408 1.000290258454308 1.554600470703156 283.9029397968465 7.359751257318601
0.007800000000000001 6366.163737156984 1.000289864158322 1.55452467561421 283.8357084796033 7.326868082666209
0.007900000000000001 6366.174128718635 1.000289468692518 1.554448839821172 283.768163328872 7.293961786071351
0.008 6366.184568588637 1.000289072063826 1.554372963218175 283.700304173857 7.261033661663412
0.0081 6366.195056793335 1.000288674279186 1.554297045700344 283.6321308433197 7.228085001983729
0.008200000000000001 6366.205593359144 1.000288275345546 1.554221087163782 283.5636431655661 7.195117097899216
0.0083 6366.216178312545 1.000287875269866 1.554145087505536 283.4948409684588 7.162131238527587
0.008400000000000001 6366.226811680089 1.000287474059116 1.554069046623685 283.425724079423 7.129128711159757
0.008500000000000001 6366.237493488391 1.000287071720273 1.553992964417334 283.3562923254584 7.096110801185117
0.0086 6366.248223764134 1.000286668260325 1.553916840786476 283.286545533127 7.063078792005651
0.008700000000000001 6366.259002534069 1.000286263686267 1.553840675632147 283.2164835285533 7.030033964955914
0.008800000000000001 6366.269829825008 1.000285858005106 1.553764468856387 283.1461061374483 6.99697759923425
0.0089 6366.280705663829 1.000285451223852 1.553688220362202 283.0754131851089 6.963910971822874
0.009000000000000001 6366.291630077476 1.000285043349528 1.553611930053613 283.0044044964064 6.930835357402624
0.0091 6366.302603092952 1.000284634389163 1.55353559783558 282.9330798958102 6.897752028284471
0.0092 6366.313624737327 1.000284224349792 1.553459223614157 282.8614392073758 6.864662254324563
0.009300000000000001 6366.324695037729 1.000283813238459 1.553382807296271 282.7894822547627 6.831567302853195
0.0094 6366.33581402135 1.000283401062215 1.553306348789934 282.7172088612223 6.798468438590256
0.0095 6366.346981715443 1.000282987828117 1.553229848004095 282.6446188496219 6.765366923577167
0.009600000000000001 6366.358198147317 1.00028257354323 1.553153304848776 282.5717120424387 6.732264017095346
0.0097 6366.369463344346 1.000282158214623 1.553076719234921 282.4984882617536 6.699160975585
0.0098 6366.380777333959 1.000281741849372 1.553000091074525 282.4249473292692 6.666059052574806
0.009900000000000001 6366.392140143643 1.00028132445456 1.552923420280523 282.3510890663218 6.63295949860898
0.01 6366.403551800946 1.000280906037274 1.552846706766915 282.2769132938514 6.599863561156042
0.0101 6366.415012333469 1.000280486604606 1.552769950448663 282.2024198324492 6.566772484552219
0.0102 6366.426521768873 1.000280066163655 1.552693151241722 282.1276085023281 6.533687509910655
0.0103 6366.43808013487 1.000279644721521 1.552616309063095 282.0524791233464 6.500609875054581
0.0104 6366.449687459231 1.000279222285314 1.552539423830723 281.9770315150016 6.467540814437571
0.0105 6366.46134376978 1.000278798862142 1.552462495463586 281.9012654964307 6.434481559066707
0.0106 6366.473049094396 1.000278374459122 1.552385523881696 281.8251808864278 6.401433336433705
0.0107 6366.484803461008 1.000277949083371 1.552308509006006 281.74877750345 6.368397370441027
0.0108 6366.4966068976 1.000277522742012 1.552231450758504 281.6720551655998 6.335374881318071
0.0109 6366.508459432207 1.00027709544217 1.552154349062209 281.5950136906544 6.302367085558075
0.011 6366.520361092916 1.000276667190973 1.552077203841071 281.5176528960482 6.269375195834865
0.0111 6366.532311907862 1.000276237995551 1.552000015020121 281.4399725988964 6.236400420937654
0.0112 6366.544311905234 1.000275807863039 1.551922782525343 281.3619726159772 6.203443965688437
0.0113 6366.556361113268 1.000275376800571 1.551845506283763 281.2836527637554 6.170507030877292
0.0114 6366.568459560249 1.000274944815283 1.551768186223401 281.2050128583827 6.137590813187856
0.0115 6366.580607274508 1.000274511914316 1.551690822273227 281.1260527156973 6.10469650512315
0.0116 6366.592804284428 1.000274078104809 1.551613414363308 281.0467721512181 6.071825294929303
0.0117 6366.605050618435 1.000273643393903 1.551535962424665 280.9671709801745 6.038978366534307
0.0118 6366.617346305001 1.00027320778874 1.551458466389331 280.8872490174944 6.006156899469827
0.0119 6366.629691372646 1.000272771296463 1.551380926190347 280.8070060777981 5.973362068795941
0.012 6366.642085849934 1.000272333924214 1.551303341761755 280.7264419754282 5.940595045040702
0.0121 6366.654529765472 1.000271895679137 1.551225713038616 280.6455565244318 5.907856994120652
0.0122 6366.667023147911 1.000271456568374 1.551148039956991 280.5643495385779 5.875149077276175
0.0123 6366.679566025946 1.000271016599068 1.551070322453928 280.4828208313519 5.8424724509976
0.0124 6366.692158428313 1.00027057577836 1.550992560467512 280.4009702159673 5.809828266958805
0.0125 6366.704800383791 1.00027013411339 1.550914753936778 280.3187975053596 5.7772176719441
0.0126 6366.717491921199 1.000269691611298 1.55083690280185 280.2363025122044 5.744641807784888
0.0127 6366.730233069397 1.000269248279223 1.550759007003768 280.1534850489169 5.712101811289606
0.0128 6366.743023857284 1.000268804124298 1.550681066484665 280.0703449276524 5.679598814174076
0.0129 6366.7558643138 1.00026835915366 1.55060308118758 279.9868819603001 5.64713394299002
0.013 6366.768754467921 1.000267913374439 1.550525051056634 279.9030959585128 5.614708319067764
0.0131 6366.781694348663 1.000267466793766 1.55044697603691 279.818986733689 5.582323058440886
0.0132 6366.794683985079 1.000267019418766 1.550368856074501 279.7345540969849 5.549979271782822
0.0133 6366.807723406257 1.000266571256562 1.550290691116524 279.6497978593319 5.51767806434605
0.0134 6366.820812641321 1.000266122314276 1.550212481111046 279.5647178314133 5.485420535885869
0.0135 6366.833951719434 1.000265672599024 1.550134226007206 279.4793138236759 5.453207780598288
0.0136 6366.84714066979 1.000265222117917 1.550055925755081 279.3935856463653 5.421040887067113
0.0137 6366.860379521616 1.000264770878067 1.549977580305776 279.3075331094968 5.388920938186878
0.0138 6366.873668304177 1.000264318886575 1.549899189611385 279.2211560228492 5.356849011095399
0.0139 6366.887007046768 1.000263866150543 1.549820753625007 279.134454196006 5.324826177124299
0.014 6366.900395778716 1.000263412677066 1.549742272300745 279.047427438344 5.292853501730079
0.0141 6366.91383452938 1.000262958473233 1.549663745593682 278.9600755590271 5.260932044427984
0.0142 6366.927323328151 1.000262503546129 1.549585173459902 278.8723983670183 5.229062858732896
0.0143 6366.940862204448 1.000262047902834 1.549506555856479 278.7843956710852 5.197246992098479
0.0144 6366.954451187723 1.00026159155042 1.549427892741481 278.6960672798008 5.165485485854675
0.0145 6366.968090307453 1.000261134495955 1.549349184073988 278.6074130015544 5.133779375149955
0.0146 6366.981779593148 1.000260676746499 1.549270429814049 278.5184326445404 5.102129688885591
0.0147 6366.99551907434 1.000260218309106 1.549191629922718 278.4291260167878 5.070537449665209
0.0148 6367.009308780595 1.000259759190825 1.549112784362027 278.3394929261302 5.039003673723832
0.0149 6367.0231487415 1.000259299398695 1.549033893095012 278.2495331802478 5.007529370882575
0.015 6367.037038986671 1.00025883893975 1.548954956085652 278.1592465866373 4.976115544478811
0.0151 6367.050979545748 1.000258377821014 1.54887597329897 278.068632952636 4.944763191315628
0.0152 6367.064970448396 1.000257916049506 1.548796944700932 277.9776920854273 4.913473301605499
0.0153 6367.079011724303 1.000257453632235 1.548717870258532 277.8864237920292 4.882246858908429
0.0154 6367.093103403183 1.000256990576202 1.548638749939687 277.7948278793118 4.85108484008087
0.0155 6367.107245514771 1.0002565268884 1.548559583713332 277.7029041539917 4.819988215217032
0.0156 6367.121438088823 1.000256062575813 1.548480371549374 277.6106524226492 4.78895794759883
0.0157 6367.13568115512 1.000255597645415 1.548401113418695 277.518072491723 4.757994993638339
0.0158 6367.14997474346 1.000255132104173 1.548321809293158 277.4251641675099 4.727100302822895
0.0159 6367.164318883664 1.000254665959043 1.5482424591456 277.3319272561824 4.69627481766668
0.016 6367.178713605573 1.00025419921697 1.548163062949822 277.2383615637772 4.665519473653036
0.0161 6367.193158939046 1.000253731884891 1.548083620680586 277.1444668962007 4.634835199183336
0.0162 6367.20765491396 1.000253263969731 1.548004132313652 277.0502430592591 4.604222915534094
0.0163 6367.222201560211 1.000252795478408 1.547924597825752 276.9556898586283 4.573683536795335
0.0164 6367.236798907711 1.000252326417825 1.547845017194528 276.8608070998779 4.543217969827007
0.0165 6367.25144698639 1.000251856794875 1.547765390398668 276.7655945884652 4.512827114206361
0.0166 6367.266145826194 1.000251386616444 1.547685717417725 276.6700521297411 4.48251186217982
0.0167 6367.280895457083 1.000250915889401 1.547605998232298 276.5741795289617 4.452273098617293
0.0168 6367.295695909034 1.000250444620606 1.54752623282392 276.4779765912771 4.422111700959658
0.0169 6367.310547212037 1.000249972816906 1.547446421175051 276.3814431217601 4.392028539179899
0.017 6367.325449396095 1.000249500485138 1.547366563269133 276.2845789253832 4.362024475728188
0.0171 6367.340402491224 1.000249027632126 1.547286659090553 276.1873838070422 4.332100365492422
0.0172 6367.355406527455 1.000248554264679 1.547206708624634 276.089857571544 4.302257055748382
0.0173 6367.370461534827 1.000248080389596 1.547126711857704 275.9920000236247 4.272495386119685
0.0174 6367.385567543393 1.000247606013661 1.547046668776949 275.8938109679433 4.242816188531127
0.0175 6367.400724583217 1.000247131143647 1.54696657937056 275.7952902090882 4.213220287166338
0.0176 6367.415932684371 1.000246655786312 1.546886443627658 275.6964375515885 4.183708498427848
0.0177 6367.431191876937 1.0002461799484 1.546806261538284 275.5972527999082 4.15428163089251
0.0178 6367.446502191006 1.000245703636643 1.546726033093444 275.4977357584584 4.124940485272917
0.0179 6367.461863656678 1.000245226857756 1.546645758285038 275.3978862315906 4.095685854374248
0.018 6367.477276304061 1.000244749618442 1.546565437105942 275.2977040236036 4.066518523055345
0.0181 6367.492740163268 1.000244271925388 1.54648506954994 275.1971889387604 4.037439268193881
0.0182 6367.508255264418 1.000243793785268 1.54640465561174 275.0963407812827 4.008448858645298
0.0183 6367.52382163764 1.000243315204739 1.546324195286985 274.9951593553391 3.979548055200881
0.0184 6367.539439313065 1.000242836190445 1.546243688572199 274.8936444650743 3.95073761055843
0.0185 6367.555108320831 1.000242356749012 1.546163135464908 274.7917959145979 3.922018269281728
0.0186 6367.570828691077 1.000241876887052 1.54608253596347 274.6896135080013 3.89339076776916
0.0187 6367.586600453948 1.000241396611161 1.546001890067188 274.587097049341 3.864855834213077
0.0188 6367.602423639591 1.000240915927918 1.5459211977763 274.4842463426611 3.836414188571516
0.0189 6367.618298278156 1.000240434843889 1.545840459091898 274.3810611919884 3.808066542532365
0.019 6367.634224399794 1.000239953365618 1.545759674016035 274.2775414013375 3.779813599481569
0.0191 6367.65020203466 1.000239471499637 1.545678842551639 274.1736867747117 3.751656054470486
0.0192 6367.666231212905 1.000238989252461 1.545597964702514 274.0694971161196 3.72359459418877
0.0193 6367.682311964684 1.000238506630584 1.545517040473403 273.9649722295525 3.695629896926841
0.0194 6367.698444320151 1.000238023640487 1.545436069869907 273.8601119190192 3.667762632555046
0.0195 6367.714628309458 1.000237540288631 1.545355052898548 273.7549159885228 3.639993462487709
0.0196 6367.730863962755 1.000237056581461 1.545273989566699 273.6493842420899 3.612323039662126
0.0197 6367.747151310192 1.000236572525403 1.545192879882654 273.543516483753 3.584752008505782
0.0198 6367.763490381914 1.000236088126866 1.545111723855546 273.4373125175565 3.557281004910671
0.0199 6367.779881208065 1.00023560339224 1.545030521495437 273.3307721475802 3.529910656212904
0.02 6367.796323818782 1.000235118327897 1.544949272813195 273.2238951779158 3.502641581160859
0.0201 6367.812818244202 1.000234632940189 1.544867977820615 273.1166814126844 3.475474389894854
0.0202 6367.829364514454 1.000234147235452 1.544786636530344 273.0091306560488 3.448409683925981
0.0203 6367.845962659662 1.000233661220001 1.544705248955877 272.9012427121951 3.42144805610827
