#theta R n z T P_w
0 6365.5 1.000301244552384 1.560324351282931 288.15 6.309139493589266
0.0001 6365.506698014227 1.00030099825715 1.560247666105075 288.1064629075221 6.29147350592634
0.0002 6365.513444854999 1.000300750406707 1.560170958971141 288.0626084425074 6.273722677177672
0.0003 6365.520240536527 1.000300501005467 1.560094229735808 288.0184365125737 6.255887833551941
0.0004 6365.52708507312 1.000300250057866 1.56001747825448 287.9739470247176 6.237969804395431
0.0005 6365.533978479179 1.000299997568363 1.559940704383336 287.9291398853392 6.219969422147363
0.0006000000000000001 6365.540920769196 1.00029974354144 1.559863907979234 287.8840150002292 6.201887522280684
0.0007 6365.547911957758 1.000299487981603 1.559787088899752 287.8385722745755 6.183724943249801
0.0008 6365.554952059545 1.000299230893382 1.559710247003225 287.7928116129573 6.165482526433386
0.0009000000000000001 6365.56204108933 1.000298972281327 1.55963338214862 287.7467329193563 6.147161116084068
0.001 6365.569179061973 1.000298712150016 1.559556494195651 287.7003360971752 6.12876155928021
0.0011 6365.576365992431 1.000298450504044 1.559479583004695 287.6536210491957 6.110284705854023
0.0012 6365.583601895749 1.000298187348033 1.559402648436925 287.6065876776323 6.091731408357048
0.0013 6365.59088678706 1.000297922686625 1.559325690354147 287.559235884108 6.073102521994912
0.0014 6365.598220681592 1.000297656524485 1.559248708618874 287.5115655696549 6.054398904571332
0.0015 6365.605603594657 1.0002973888663 1.559171703094353 287.4635766347313 6.035621416438897
0.0016 6365.61303554166 1.000297119716779 1.559094673644508 287.4152689792107 6.016770920438024
0.0017 6365.620516538092 1.000296849080653 1.559017620133928 287.3666425024047 5.997848281849637
0.0018 6365.628046599533 1.000296576962673 1.558940542428018 287.3176971030338 5.978854368326911
0.0019 6365.635625741652 1.000296303367616 1.558863440392723 287.2684326792627 5.959790049852189
0.002 6365.643253980202 1.000296028300274 1.558786313894838 287.2188491286887 5.940656198675275
0.0021 6365.650931331025 1.000295751765464 1.558709162801688 287.1689463483357 5.921453689253964
0.0022 6365.65865781005 1.000295473768025 1.558631986981481 287.1187242346776 5.902183398205764
0.0023 6365.666433433288 1.000295194312814 1.558554786302964 287.068182683627 5.882846204245797
0.0024 6365.674258216842 1.000294913404709 1.55847756063568 287.0173215905287 5.863442988126875
0.0025 6365.682132176893 1.00029463104861 1.558400309849864 286.9661408501955 5.843974632595232
0.0026 6365.69005532971 1.000294347249438 1.558323033816336 286.9146403568847 5.824442022323479
0.0027 6365.698027691647 1.00029406201213 1.55824573240676 286.8628200042975 5.804846043852545
0.0028 6365.706049279139 1.000293775341648 1.558168405493393 286.8106796855976 5.785187585540165
0.0029 6365.714120108705 1.000293487242971 1.55809105294924 286.7582192934163 5.765467537504712
0.003 6365.722240196949 1.000293197721097 1.558013674647988 286.7054387198294 5.745686791557799
0.0031 6365.730409560555 1.000292906781047 1.557936270464036 286.6523378563924 5.725846241159018
0.0032 6365.738628216289 1.000292614427858 1.557858840272406 286.5989165941227 5.705946781350525
0.0033 6365.746896181 1.000292320666587 1.557781383948903 286.5451748234999 5.685989308698243
0.0034 6365.755213471616 1.00029202550231 1.55770390137002 286.4911124344952 5.665974721243892
0.0035 6365.763580105147 1.000291728940122 1.557626392412902 286.4367293165418 5.645903918434947
0.0036 6365.771996098684 1.000291430985138 1.557548856955423 286.3820253585526 5.625777801072082
0.0037 6365.780461469395 1.000291131642489 1.557471294876122 286.3270004489322 5.605597271254259
0.0038 6365.788976234528 1.000290830917326 1.557393706054299 286.2716544755707 5.585363232317188
0.0039 6365.797540411411 1.000290528814817 1.55731609036989 286.2159873258264 5.565076588767438
0.004 6365.806154017451 1.000290225340148 1.557238447703576 286.1599988865668 5.544738246238067
0.0041 6365.814817070131 1.000289920498524 1.55716077793667 286.1036890441509 5.524349111422524
0.004200000000000001 6365.823529587012 1.000289614295167 1.557083080951308 286.0470576844235 5.503910092012867
0.0043 6365.832291585732 1.000289306735316 1.557005356630191 285.9901046927388 5.483422096648609
0.0044 6365.841103084007 1.000288997824228 1.556927604856815 285.9328299539542 5.462886034854746
0.004500000000000001 6365.849964099628 1.000288687567175 1.556849825515322 285.8752333524188 5.442302816977683
0.0046 6365.858874650461 1.000288375969448 1.556772018490603 285.817314772003 5.421673354135929
0.0047 6365.867834754448 1.000288063036354 1.556694183668226 285.7590740960862 5.400998558155861
0.0048 6365.876844429607 1.000287748773218 1.556616320934471 285.7005112075575 5.380279341511739
0.0049 6365.885903694028 1.000287433185378 1.556538430176271 285.6416259888209 5.359516617267761
0.005 6365.895012565877 1.000287116278191 1.556460511281379 285.5824183218018 5.338711299020066
0.0051 6365.904171063392 1.000286798057028 1.556382564138139 285.5228880879525 5.317864300838669
0.005200000000000001 6365.913379204887 1.000286478527278 1.556304588635667 285.4630351682348 5.29697653720111
0.0053 6365.922637008744 1.000286157694344 1.556226584663802 285.4028594431669 5.276048922948797
0.0054 6365.93194449342 1.000285835563645 1.556148552113001 285.3423607927706 5.255082373208236
0.005500000000000001 6365.941301677444 1.000285512140614 1.55607049087451 285.2815390966124 5.234077803345253
0.0056 6365.950708579416 1.000285187430701 1.555992400840269 285.2203942337977 5.213036128902687
0.0057 6365.960165218004 1.000284861439369 1.555914281902927 285.1589260829709 5.191958265540149
0.0058 6365.969671611952 1.000284534172098 1.555836133955823 285.0971345223151 5.1708451289738
0.0059 6365.979227780067 1.00028420563438 1.555757956893038 285.0350194295642 5.14969763492017
0.006 6365.988833741231 1.000283875831723 1.555679750609356 284.9725806819969 5.128516699033919
0.0061 6365.998489514393 1.000283544769647 1.555601515000239 284.9098181564426 5.107303236849631
0.006200000000000001 6366.008195118572 1.000283212453689 1.555523249961931 284.8467317292815 5.086058163721652
0.0063 6366.017950572852 1.000282878889398 1.555444955391336 284.7833212764621 5.064782394769875
0.0064 6366.027755896387 1.000282544082336 1.555366631186091 284.7195866734836 5.043476844813622
0.006500000000000001 6366.037611108397 1.000282208038078 1.555288277244564 284.6555277954197 5.02214242831945
0.0066 6366.04751622817 1.000281870762216 1.555209893465791 284.5911445168948 5.000780059333186
0.0067 6366.05747127506 1.000281532260349 1.555131479749604 284.5264367121075 4.979390651427784
0.0068 6366.067476268487 1.000281192538094 1.555053035996498 284.4614042548368 4.957975117645258
0.006900000000000001 6366.077531227935 1.000280851601077 1.554974562107679 284.3960470184242 4.936534370430882
0.007 6366.087636172954 1.000280509454939 1.554896057985143 284.3303648757973 4.915069321581096
0.0071 6366.097791123159 1.000280166105332 1.554817523531493 284.2643576994641 4.893580882181722
0.007200000000000001 6366.10799609823 1.00027982155792 1.554738958650154 284.1980253615069 4.872069962546287
0.0073 6366.118251117906 1.000279475818378 1.554660363245258 284.1313677336119 4.850537472165927
0.0074 6366.128556201994 1.000279128892395 1.554581737221602 284.0643846870397 4.828984319640173
0.007500000000000001 6366.138911370362 1.000278780785668 1.554503080484768 283.9970760926489 4.807411412625074
0.0076 6366.149316642939 1.000278431503909 1.554424392941022 283.9294418208959 4.785819657773714
0.0077 6366.159772039719 1.000278081052838 1.554345674497388 283.8614817418296 4.764209960674957
0.007800000000000001 6366.170277580752 1.000277729438188 1.554266925061596 283.7931957251143 4.742583225801691
0.007900000000000001 6366.180833286154 1.000277376665701 1.554188144542101 283.7245836400006 4.720940356442261
0.008 6366.191439176099 1.00027702274113 1.554109332848114 283.6556453553547 4.699282254650783
0.0081 6366.202095270823 1.000276667670239 1.554030489889503 283.586380739653 4.677609821186295
0.008200000000000001 6366.212801590616 1.000276311458802 1.553951615576928 283.5167896609931 4.655923955457573
0.0083 6366.223558155835 1.000275954112601 1.55387270982178 283.4468719870709 4.634225555457035
0.008400000000000001 6366.234364986889 1.00027559563743 1.553793772536139 283.3766275852216 4.612515517715018
0.008500000000000001 6366.245222104249 1.00027523603909 1.553714803632844 283.3060563223843 4.590794737230264
0.0086 6366.256129528439 1.000274875323395 1.553635803025438 283.2351580651433 4.569064107424358
0.008700000000000001 6366.267087280046 1.000274513496164 1.553556770628237 283.1639326796989 4.547324520074386
0.008800000000000001 6366.278095379711 1.000274150563228 1.553477706356253 283.0923800318786 4.525576865258524
0.0089 6366.28915384813 1.000273786530425 1.553398610125213 283.0204999871556 4.503822031303509
0.009000000000000001 6366.300262706056 1.000273421403601 1.553319481851682 282.9482924106363 4.482060904723236
0.0091 6366.311421974297 1.000273055188612 1.553240321452794 282.8757571670725 4.460294370164719
0.0092 6366.322631673717 1.000272687891321 1.553161128846532 282.8028941208375 4.438523310343548
0.009300000000000001 6366.333891825235 1.000272319517599 1.55308190395162 282.7297031359739 4.416748606000795
0.0094 6366.345202449819 1.000271950073326 1.553002646687415 282.656184076175 4.394971135840509
0.0095 6366.356563568497 1.000271579564387 1.552923356974108 282.582336804768 4.373191776467552
0.009600000000000001 6366.367975202346 1.000271207996676 1.552844034732592 282.5081611847489 4.351411402341354
0.0097 6366.379437372496 1.000270835376093 1.552764679884487 282.4336570787767 4.329630885717545
0.0098 6366.39095010013 1.000270461708547 1.552685292352158 282.3588243491557 4.30785109658639
0.009900000000000001 6366.402513406482 1.000270086999952 1.552605872058689 282.2836628578651 4.286072902625258
0.01 6366.414127312837 1.000269711256229 1.552526418927915 282.2081724665589 4.264297169142583
0.0101 6366.425791840532 1.000269334483304 1.552446932884425 282.1323530365424 4.242524759015262
0.0102 6366.437507010953 1.000268956687111 1.55236741385353 282.0562044288075 4.220756532643342
0.0103 6366.449272845535 1.000268577873589 1.552287861761249 281.979726504021 4.198993347891224
0.0104 6366.461089365765 1.000268198048684 1.55220827653434 281.9029191225303 4.177236060034228
0.0105 6366.472956593175 1.000267817218345 1.552128658100385 281.8257821443639 4.155485521703682
0.0106 6366.48487454935 1.000267435388527 1.552049006387599 281.7483154292248 4.133742582830608
0.0107 6366.496843255919 1.000267052565192 1.551969321324996 281.6705188365266 4.112008090601253
0.0108 6366.50886273456 1.000266668754306 1.551889602842289 281.5923922253577 4.090282889392906
0.0109 6366.520933006998 1.000266283961838 1.551809850869948 281.5139354545107 4.068567820728231
0.011 6366.533054095004 1.000265898193764 1.551730065339209 281.4351483824711 4.04686372321825
0.0111 6366.545226020396 1.000265511456063 1.551650246181993 281.3560308674286 4.025171432512172
0.0112 6366.557448805034 1.000265123754719 1.551570393330989 281.2765827672773 4.003491781244189
0.0113 6366.56972247083 1.000264735095718 1.551490506719619 281.1968039396041 3.98182559897735
0.0114 6366.582047039735 1.000264345485051 1.551410586282044 281.1166942417238 3.960173712160564
0.0115 6366.594422533746 1.000263954928713 1.551330631953168 281.0362535306498 3.938536944068188
0.0116 6366.606848974904 1.000263563432702 1.551250643668614 280.9554816631234 3.916916114755906
0.0117 6366.619326385291 1.000263171003019 1.551170621364783 280.8743784956081 3.895312041007282
0.0118 6366.631854787035 1.000262777645667 1.551090564978753 280.7929438842719 3.873725536277518
0.0119 6366.644434202304 1.000262383366654 1.551010474448394 280.7111776850228 3.852157410651678
0.012 6366.657064653309 1.000261988171987 1.550930349712315 280.6290797534906 3.830608470789017
0.0121 6366.669746162302 1.00026159206768 1.550850190709814 280.5466499450393 3.809079519875476
0.0122 6366.682478751576 1.000261195059745 1.550769997380931 280.4638881147552 3.787571357570275
0.0123 6366.695262443465 1.000260797154198 1.550689769666519 280.3807941174758 3.76608477996361
0.0124 6366.708097260342 1.000260398357056 1.550609507508091 280.2973678077791 3.74462057952384
0.0125 6366.720983224618 1.000259998674338 1.550529210847914 280.2136090399825 3.723179545048114
0.0126 6366.733920358748 1.000259598112065 1.550448879629002 280.1295176681377 3.701762461611856
0.0127 6366.746908685222 1.000259196676256 1.550368513795101 280.0450935460598 3.680370110527604
0.0128 6366.759948226567 1.000258794372936 1.550288113290685 279.9603365273155 3.659003269293574
0.0129 6366.77303900535 1.000258391208128 1.550207678060966 279.8752464652233 3.637662711545627
0.013 6366.786181044175 1.000257987187853 1.55012720805193 279.7898232128595 3.616349207011078
0.0131 6366.799374365682 1.000257582318138 1.550046703210209 279.7040666230695 3.595063521464292
0.0132 6366.812618992547 1.000257176605005 1.549966163483253 279.6179765484447 3.573806416673822
0.0133 6366.825914947483 1.00025677005448 1.549885588819217 279.5315528413579 3.552578650364594
0.0134 6366.839262253238 1.000256362672586 1.549804979166959 279.444795353951 3.531380976168681
0.0135 6366.852660932595 1.000255954465347 1.549724334476096 279.3577039381356 3.510214143579404
0.0136 6366.866111008369 1.000255545438785 1.549643654697003 279.2702784455986 3.489078897907275
0.0137 6366.879612503413 1.000255135598924 1.549562939780756 279.182518727814 3.467975980237688
0.0138 6366.893165440611 1.000254724951785 1.549482189679135 279.0944246360312 3.446906127383288
0.0139 6366.906769842879 1.000254313503387 1.549401404344702 279.0059960212869 3.425870071842445
0.014 6366.920425733168 1.00025390125975 1.549320583730717 278.9172327344107 3.404868541756649
0.0141 6366.934133134459 1.00025348822689 1.549239727791171 278.8281346260136 3.383902260864116
0.0142 6366.947892069769 1.000253074410824 1.549158836480806 278.7387015464996 3.362971948459418
0.0143 6366.961702562141 1.000252659817565 1.549077909755051 278.6489333460835 3.342078319354813
0.0144 6366.97556463465 1.000252244453124 1.548996947570099 278.5588298747733 3.321222083833689
0.0145 6366.989478310404 1.000251828323512 1.548915949882834 278.468390982376 3.300403947609993
0.0146 6367.003443612536 1.000251411434733 1.548834916650891 278.3776165185153 3.279624611790748
0.0147 6367.017460564214 1.000250993792794 1.548753847832626 278.2865063326079 3.25888477282949
0.0148 6367.031529188632 1.000250575403694 1.548672743387083 278.1950602738933 3.238185122492324
0.0149 6367.045649509011 1.000250156273433 1.548591603274102 278.1032781914276 3.217526347816256
0.015 6367.059821548602 1.000249736408004 1.548510427454146 278.0111599340838 3.196909131069325
0.0151 6367.074045330683 1.000249315813401 1.548429215888494 277.9187053505574 3.176334149712515
0.0152 6367.08832087856 1.00024889449561 1.548347968539059 277.8259142893606 3.155802076359462
0.0153 6367.102648215565 1.000248472460616 1.548266685368538 277.7327865988285 3.135313578739275
0.0154 6367.117027365055 1.0002480497144 1.548185366340293 277.6393221271422 3.114869319663635
0.0155 6367.131458350415 1.000247626262937 1.548104011418445 277.5455207223057 3.094469956983937
0.0156 6367.145941195054 1.0002472021122 1.548022620567801 277.4513822321513 3.074116143555456
0.0157 6367.160475922405 1.000246777268155 1.54794119375389 277.3569065043697 3.05380852720702
0.0158 6367.175062555927 1.000246351736766 1.547859730942943 277.262093386474 3.033547750697076
0.0159 6367.189701119101 1.00024592552399 1.547778232101919 277.1669427258415 3.0133344516868
0.016 6367.204391635435 1.00024549863578 1.547696697198486 277.0714543696721 2.993169262695949
0.0161 6367.219134128456 1.000245071078084 1.547615126201 276.9756281650356 2.973052811078085
0.0162 6367.233928621716 1.000244642856844 1.547533519078536 276.8794639588481 2.952985718981175
0.0163 6367.248775138787 1.000244213977997 1.547451875800885 276.7829615978839 2.932968603316208
0.0164 6367.263673703266 1.000243784447473 1.547370196338518 276.6861209287694 2.913002075722585
0.0165 6367.278624338769 1.000243354271199 1.547288480662625 276.588941798001 2.893086742538884
0.0166 6367.293627068932 1.000242923455092 1.547206728745097 276.4914240519391 2.873223204769206
0.0167 6367.308681917414 1.000242492005065 1.547124940558541 276.3935675368083 2.853412058051278
0.0168 6367.323788907893 1.000242059927026 1.547043116076187 276.2953720986969 2.833653892625062
0.0169 6367.338948064064 1.000241627226873 1.546961255272064 276.1968375835812 2.813949293306611
0.017 6367.354159409645 1.000241193910499 1.546879358120847 276.0979638373072 2.794298839454067
0.0171 6367.36942296837 1.000240759983792 1.54679742459788 275.998750705597 2.774703104938973
0.0172 6367.384738763993 1.000240325452629 1.54671545467925 275.8991980340483 2.755162658116928
0.0173 6367.400106820282 1.000239890322883 1.54663344834169 275.7993056681643 2.735678061804506
0.0174 6367.415527161027 1.000239454600417 1.54655140556268 275.6990734533241 2.716249873245081
0.0175 6367.430999810033 1.000239018291088 1.546469326320314 275.5985012347886 2.696878644082219
0.0176 6367.446524791119 1.000238581400747 1.546387210593413 275.4975888577241 2.677564920336953
0.0177 6367.462102128124 1.000238143935232 1.54630505836148 275.3963361671962 2.658309242379822
0.0178 6367.477731844901 1.000237705900379 1.546222869604694 275.2947430081466 2.639112144900169
0.0179 6367.493413965316 1.000237267302011 1.5461406443039 275.192809225446 2.619974156890537
0.018 6367.509148513253 1.000236828145944 1.546058382440656 275.0905346638527 2.600895801613655
0.0181 6367.52493551261 1.000236388437987 1.54597608399716 274.9879191680365 2.581877596582283
0.0182 6367.540774987296 1.000235948183939 1.545893748956303 274.8849625825782 2.562920053535111
0.0183 6367.556666961234 1.00023550738959 1.545811377301668 274.7816647519761 2.5440236784143
0.0184 6367.572611458365 1.000235066060721 1.545728969017457 274.678025520628 2.525188971339259
0.0185 6367.588608502636 1.000234624203105 1.545646524088576 274.5740447328666 2.506416426590684
0.0186 6367.60465811801 1.000234181822503 1.545564042500597 274.4697222329359 2.48770653258436
0.0187 6367.62076032846 1.000233738924671 1.54548152423974 274.3650578650089 2.469059771853034
0.0188 6367.636915157971 1.00023329551535 1.545398969292898 274.2600514731879 2.450476621025625
0.0189 6367.653122630541 1.000232851600276 1.545316377647648 274.1547029014863 2.431957550803888
0.019 6367.669382770173 1.000232407185172 1.54523374929216 274.0490119938762 2.413503025951107
0.0191 6367.685695600886 1.000231962275751 1.545151084215334 273.942978594241 2.395113505264685
0.0192 6367.702061146705 1.000231516877719 1.54506838240667 273.8366025464169 2.376789441564868
0.0193 6367.718479431666 1.000231070996768 1.54498564385635 273.729883694169 2.358531281672684
0.0194 6367.734950479813 1.000230624638581 1.544902868555193 273.6228218812151 2.340339466396632
0.0195 6367.751474315199 1.000230177808831 1.544820056494673 273.5154169512083 2.322214430512845
0.0196 6367.768050961884 1.000229730513178 1.544737207666882 273.407668747754 2.304156602751884
0.0197 6367.784680443937 1.000229282757274 1.544654322064599 273.2995771144105 2.286166405783062
0.0198 6367.801362785433 1.000228834546758 1.544571399681198 273.1911418946887 2.268244256199364
0.0199 6367.818098010453 1.000228385887258 1.544488440510747 273.0823629320524 2.250390564502955
0.02 6367.834886143088 1.000227936784391 1.544405444547876 272.9732400699298 2.232605735093217
0.0201 6367.851727207432 1.000227487243763 1.544322411787902 272.86377315169 2.214890166249571
0.0202 6367.868621227585 1.000227037270968 1.544239342226765 272.7539620206961 2.197244250127375
0.0203 6367.885568227653 1.000226586871588 1.544156235861015 272.6438065202582 2.179668372738078
