#theta R n z T P_w
0 6365.5 1.000331150269001 1.560324351282931 288.15 12.95931355439958
0.0001 6365.506698014227 1.000330829269111 1.560254747088244 288.1064629075221 12.92302666082167
0.0002 6365.513440347083 1.00033050654632 1.560185105813501 288.0626377439611 12.88658983047192
0.0003 6365.520227022382 1.000330182106842 1.560115427255259 288.0185243545187 12.85000452654819
0.0004 6365.527058064064 1.000329855956919 1.560045711211142 287.9741225835809 12.81327221733249
0.0005 6365.533933496206 1.00032952810282 1.559975957479864 287.9294322746586 12.77639437606186
0.0006000000000000001 6365.540853343011 1.000329198550847 1.559906165861162 287.8844532704292 12.73937248088224
0.0007 6365.54781762881 1.000328867307327 1.559836336155777 287.8391854127366 12.70220801476762
0.0008 6365.554826378065 1.000328534378619 1.559766468165537 287.7936285425793 12.66490246542915
0.0009000000000000001 6365.561879615364 1.000328199771106 1.55969656169333 287.7477825001341 12.62745732525305
0.001 6365.568977365423 1.000327863491205 1.559626616542998 287.7016471247501 12.58987409121383
0.0011 6365.576119653085 1.000327525545354 1.559556632519539 287.6552222549489 12.55215426479205
0.0012 6365.583306503317 1.000327185940025 1.559486609428965 287.6085077284419 12.51429935190621
0.0013 6365.590537941212 1.000326844681713 1.559416547078304 287.5615033821249 12.4763108628249
0.0014 6365.597813991988 1.000326501776945 1.559346445275584 287.5142090520779 12.43819031208361
0.0015 6365.605134680986 1.00032615723227 1.55927630383008 287.4666245735888 12.39993921842008
0.0016 6365.612500033671 1.000325811054268 1.559206122551929 287.4187497811353 12.3615591046761
0.0017 6365.619910075629 1.000325463249543 1.559135901252368 287.370584508409 12.3230514977321
0.0018 6365.62736483257 1.000325113824728 1.559065639743754 287.3221285882977 12.28441792840838
0.0019 6365.634864330322 1.000324762786481 1.558995337839393 287.2733818529085 12.24565993139898
0.002 6365.642408594837 1.000324410141485 1.558924995353779 287.2243441335626 12.20677904518169
0.0021 6365.649997652184 1.000324055896451 1.558854612102368 287.1750152608064 12.16777681194181
0.0022 6365.657631528551 1.000323700058115 1.558784187901705 287.1253950644181 12.12865477749083
0.0023 6365.665310250248 1.000323342633238 1.558713722569401 287.0754833733894 12.0894144911662
0.0024 6365.673033843699 1.000322983628607 1.558643215924168 287.0252800159554 12.05005750576815
0.0025 6365.680802335447 1.000322623051034 1.558572667785669 286.9747848195947 12.01058537747271
0.0026 6365.68861575215 1.000322260907354 1.558502077974839 286.9239976110229 11.97099966573994
0.0027 6365.696474120584 1.00032189720443 1.55843144631346 286.872918216205 11.93130193323572
0.0028 6365.704377467638 1.000321531949147 1.558360772624533 286.8215464603553 11.89149374574404
0.0029 6365.712325820316 1.000321165148415 1.558290056732071 286.769882167949 11.85157667208808
0.003 6365.720319205734 1.000320796809167 1.558219298461224 286.7179251627284 11.81155228404648
0.0031 6365.728357651124 1.000320426938361 1.558148497638149 286.6656752676907 11.77142215625556
0.0032 6365.736441183832 1.000320055542978 1.558077654090086 286.6131323050944 11.7311878661252
0.0033 6365.744569831309 1.000319682630022 1.558006767645442 286.5602960964883 11.69085099377226
0.0034 6365.752743621124 1.000319308206521 1.557935838133622 286.5071664626943 11.65041312191762
0.0035 6365.76096258095 1.000318932279524 1.557864865385178 286.4537432238247 11.60987583581002
0.0036 6365.769226738576 1.000318554856105 1.557793849231687 286.4000261992591 11.56924072311821
0.0037 6365.777536121893 1.000318175943358 1.557722789505892 286.3460152076967 11.52850937388112
0.0038 6365.785890758906 1.000317795548402 1.557651686041527 286.2917100671101 11.48768338038168
0.0039 6365.794290677725 1.000317413678374 1.557580538673532 286.2371105947858 11.44676433708741
0.004 6365.802735906569 1.000317030340437 1.557509347237892 286.182216607301 11.40575384054179
0.0041 6365.811226473759 1.000316645541771 1.557438111571691 286.127027920565 11.36465348930411
0.004200000000000001 6365.819762407726 1.000316259289581 1.557366831513119 286.0715443497833 11.32346488383161
0.0043 6365.828343737001 1.00031587159109 1.557295506901476 286.0157657094936 11.28218962641441
0.0044 6365.836970490223 1.000315482453545 1.557224137577151 285.9596918135479 11.24082932107049
0.004500000000000001 6365.845642696135 1.00031509188421 1.557152723381671 285.9033224751241 11.19938557346259
0.0046 6365.854360383578 1.000314699890371 1.557081264157645 285.846657506744 11.15785999081903
0.0047 6365.863123581499 1.000314306479335 1.557009759748804 285.7896967202554 11.1162541818283
0.0048 6365.871932318945 1.000313911658425 1.556938210000003 285.7324399268558 11.07456975656384
0.0049 6365.880786625065 1.000313515434988 1.556866614757211 285.6748869370807 11.03280832638261
0.005 6365.889686529103 1.000313117816388 1.55679497386749 285.617037560833 10.99097150385371
0.0051 6365.898632060408 1.000312718810007 1.556723287179064 285.5588916073474 10.94906090263947
0.005200000000000001 6365.907623248424 1.000312318423248 1.556651554541257 285.5004488852441 10.9070781374407
0.0053 6365.916660122695 1.00031191666353 1.556579775804533 285.4417092024809 10.86502482386912
0.0054 6365.92574271286 1.000311513538293 1.556507950820456 285.3826723664127 10.82290257839623
0.005500000000000001 6365.934871048655 1.000311109054993 1.556436079441759 285.3233381837443 10.78071301822566
0.0056 6365.944045159911 1.000310703221103 1.556364161522298 285.2637064605773 10.73845776123303
0.0057 6365.953265076556 1.000310296044117 1.55629219691699 285.2037770023866 10.69613842585502
0.0058 6365.962530828609 1.000309887531543 1.556220185482035 285.1435496140383 10.65375663100782
0.0059 6365.971842446186 1.000309477690906 1.556148127074618 285.0830240997897 10.61131399599275
0.006 6365.981199959492 1.000309066529749 1.556076021553178 285.0222002633008 10.56881214041012
0.0061 6365.990603398827 1.000308654055632 1.556003868777234 284.9610779076228 10.52625268405643
0.006200000000000001 6366.000052794581 1.000308240276129 1.555931668607471 284.8996568352217 10.48363724684618
0.0063 6366.009548177235 1.000307825198831 1.555859420905713 284.8379368479722 10.44096744871299
0.0064 6366.019089577358 1.000307408831344 1.555787125534965 284.7759177471697 10.39824490952284
0.006500000000000001 6366.028677025612 1.000306991181292 1.555714782359341 284.7135993335245 10.35547124897505
0.0066 6366.038310552743 1.00030657225631 1.555642391244102 284.6509814071732 10.31264808651539
0.0067 6366.047990189586 1.000306152064052 1.555569952055733 284.5880637676909 10.26977704124896
0.0068 6366.057715967066 1.000305730612183 1.555497464661771 284.5248462140734 10.22685973183288
0.006900000000000001 6366.06748791619 1.000305307908383 1.555424928931013 284.4613285447666 10.18389777640116
0.007 6366.077306068052 1.000304883960349 1.555352344733359 284.3975105576609 10.14089279246528
0.0071 6366.087170453833 1.000304458775788 1.555279711939889 284.3333920500849 10.09784639681479
0.007200000000000001 6366.097081104794 1.000304032362422 1.555207030422834 284.268972818841 10.05476020544578
0.0073 6366.107038052281 1.000303604727987 1.555134300055644 284.2042526601703 10.01163583344146
0.0074 6366.117041327725 1.000303175880231 1.555061520712826 284.1392313697874 9.968474894900485
0.007500000000000001 6366.127090962635 1.000302745826914 1.554988692270187 284.073908742875 9.925279002837327
0.0076 6366.137186988601 1.00030231457581 1.554915814604604 284.0082845740957 9.882049769094513
0.0077 6366.147329437296 1.000301882134703 1.554842887594212 283.9423586575739 9.838788804235335
0.007800000000000001 6366.157518340472 1.000301448511392 1.554769911118252 283.8761307869316 9.795497717471598
0.007900000000000001 6366.167753729958 1.000301013713685 1.554696885057163 283.8096007552707 9.752178116556303
0.008 6366.178035637664 1.0003005777494 1.554623809292619 283.7427683551845 9.70883160769583
0.0081 6366.188364095574 1.000300140626371 1.55455068370733 283.6756333787697 9.665459795461967
0.008200000000000001 6366.19873913575 1.000299702352437 1.554477508185373 283.6081956176266 9.622064282696281
0.0083 6366.20916079033 1.000299262935451 1.554404282611886 283.5404548628529 9.578646670410787
0.008400000000000001 6366.219629091528 1.000298822383275 1.55433100687324 283.4724109050675 9.535208557707616
0.008500000000000001 6366.230144071631 1.000298380703781 1.554257680856925 283.4040635343985 9.491751541675933
0.0086 6366.240705763 1.000297937904851 1.55418430445175 283.3354125405011 9.448277217307817
0.008700000000000001 6366.251314198068 1.000297493994375 1.554110877547592 283.2664577125578 9.404787177402822
0.008800000000000001 6366.261969409341 1.000297048980252 1.554037400035587 283.1971988392837 9.361283012476381
0.0089 6366.272671429398 1.000296602870392 1.553963871808015 283.1276357089154 9.31776631065714
0.009000000000000001 6366.283420290884 1.000296155672712 1.553890292758379 283.0577681092517 9.274238657617735
0.0091 6366.294216026518 1.000295707395136 1.553816662781415 282.9875958276306 9.230701636464795
0.0092 6366.305058669087 1.000295258045597 1.553742981772962 282.9171186509346 9.187156827647673
0.009300000000000001 6366.315948251446 1.000294807632035 1.553669249630167 282.8463363656032 9.1436058088709
0.0094 6366.326884806516 1.000294356162399 1.553595466251291 282.7752487576439 9.10005015500661
0.0095 6366.337868367288 1.000293903644643 1.553521631535835 282.7038556126271 9.056491437996169
0.009600000000000001 6366.348898966817 1.000293450086728 1.553447745384485 282.6321567156914 9.012931226759235
0.0097 6366.359976638221 1.000292995496621 1.553373807699155 282.5601518515617 8.969371087110062
0.0098 6366.371101414688 1.000292539882297 1.553299818382945 282.4878408045255 8.925812581648856
0.009900000000000001 6366.382273329467 1.000292083251735 1.553225777340139 282.4152233584622 8.882257269685534
0.01 6366.393492415869 1.00029162561292 1.553151684476298 282.3422992968493 8.838706707149171
0.0101 6366.404758707268 1.000291166973842 1.553077539698094 282.2690684027565 8.795162446490531
0.0102 6366.4160722371 1.000290707342496 1.553003342913483 282.1955304588513 8.751626036591926
0.0103 6366.42743303886 1.000290246726882 1.55292909403164 282.1216852474112 8.708099022680694
0.0104 6366.438841146105 1.000289785135004 1.55285479296285 282.0475325503174 8.664582946232338
0.0105 6366.450296592451 1.00028932257487 1.552780439618723 281.9730721490672 8.621079344884377
0.0106 6366.461799411572 1.000288859054492 1.552706033911986 281.8983038247851 8.57758975235024
0.0107 6366.473349637197 1.000288394581885 1.552631575756701 281.8232273582174 8.534115698323022
0.0108 6366.484947303117 1.000287929165067 1.552557065068013 281.747842529738 8.490658708386409
0.0109 6366.496592443174 1.000287462812059 1.552482501762347 281.6721491193661 8.447220303932541
0.011 6366.508285091269 1.000286995530885 1.552407885757355 281.5961469067482 8.403802002059711
0.0111 6366.520025281357 1.00028652732957 1.55233321697188 281.5198356711766 8.360405315490723
0.0112 6366.531813047445 1.000286058216144 1.552258495325954 281.4432151916061 8.317031752491335
0.0113 6366.543648423594 1.000285588198633 1.552183720740883 281.3662852466372 8.273682816768737
0.0114 6366.555531443918 1.000285117285071 1.552108893139171 281.2890456145332 8.230360007390535
0.0115 6366.567462142581 1.000284645483486 1.55203401244455 281.2114960732205 8.187064818693894
0.0116 6366.579440553801 1.000284172801915 1.551959078581882 281.1336364002944 8.143798740198278
0.0117 6366.591466711841 1.000283699248386 1.551884091477402 281.0554663730312 8.10056325652174
0.0118 6366.603540651017 1.000283224830935 1.551809051058435 280.9769857683876 8.057359847290879
0.0119 6366.615662405692 1.000282749557594 1.551733957253607 280.8981943630014 8.01418998705115
0.012 6366.627832010277 1.000282273436395 1.551658809992687 280.8190919332027 7.971055145184003
0.0121 6366.640049499228 1.000281796475369 1.551583609206734 280.7396782550203 7.927956785820998
0.0122 6366.652314907051 1.000281318682547 1.551508354828012 280.6599531041696 7.884896367748675
0.0123 6366.664628268293 1.000280840065958 1.551433046789969 280.5799162560942 7.841875344342522
0.0124 6366.67698961755 1.000280360633629 1.551357685027318 280.4995674859241 7.798895163456563
0.0125 6366.689398989458 1.000279880393585 1.551282269475944 280.4189065685235 7.755957267361057
0.0126 6366.701856418699 1.000279399353849 1.55120680007298 280.3379332784551 7.713063092636192
0.0127 6366.714361939994 1.00027891752244 1.551131276756829 280.2566473900391 7.670214070116462
0.0128 6366.726915588108 1.000278434907378 1.551055699467009 280.1750486773002 7.627411624775808
0.0129 6366.739517397846 1.000277951516675 1.550980068144341 280.0931369140029 7.584657175660205
0.013 6366.752167404053 1.000277467358342 1.550904382730851 280.0109118736576 7.541952135804836
0.0131 6366.764865641612 1.000276982440386 1.550828643169732 279.9283733295205 7.499297912148578
0.0132 6366.777612145445 1.000276496770809 1.550752849405468 279.8455210546052 7.456695905455051
0.0133 6366.790406950515 1.00027601035761 1.550677001383744 279.7623548216537 7.414147510212818
0.0134 6366.803250091816 1.000275523208782 1.550601099051414 279.678874403195 7.371654114581569
0.0135 6366.816141604382 1.000275035332314 1.5505251423566 279.5950795715156 7.329217100293097
0.0136 6366.829081523282 1.000274546736188 1.550449131248632 279.5109700986658 7.286837842571038
0.0137 6366.842069883617 1.000274057428381 1.550373065678079 279.4265457564887 7.244517710062885
0.0138 6366.855106720525 1.000273567416865 1.55029694559667 279.3418063165853 7.202258064739699
0.0139 6366.868192069176 1.000273076709607 1.550220770957372 279.2567515503555 7.160060261834936
0.014 6366.88132596477 1.000272585314563 1.550144541714413 279.1713812289921 7.117925649759892
0.0141 6366.894508442542 1.000272093239686 1.550068257823174 279.0856951234754 7.07585557001977
0.0142 6366.907739537755 1.00027160049292 1.549991919240297 278.9996930045903 7.033851357141937
0.0143 6366.921019285704 1.000271107082202 1.549915525923588 278.913374642921 6.991914338592988
0.0144 6366.934347721712 1.000270613015462 1.54983907783213 278.8267398088741 6.950045834710728
0.0145 6366.947724881129 1.000270118300622 1.549762574926144 278.7397882726613 6.90824715861653
0.0146 6366.961150799336 1.000269622945593 1.549686017167128 278.6525198043167 6.866519616145458
0.0147 6366.974625511737 1.00026912695828 1.549609404517758 278.5649341737093 6.824864505773926
0.0148 6366.988149053765 1.000268630346579 1.549532736941894 278.4770311505243 6.783283118533802
0.0149 6367.001721460879 1.000268133118376 1.549456014404652 278.3888105042878 6.741776737946856
0.015 6367.015342768559 1.000267635281547 1.549379236872327 278.3002720043659 6.700346639948381
0.0151 6367.029013012311 1.000267136843958 1.549302404312441 278.211415419977 6.658994092816963
0.0152 6367.042732227665 1.000266637813467 1.549225516693676 278.1222405201801 6.617720357093778
0.0153 6367.05650045017 1.000266138197918 1.549148573985961 278.032747073892 6.576526685516278
0.0154 6367.070317715402 1.000265638005149 1.549071576160395 277.9429348498878 6.535414322944169
0.0155 6367.084184058952 1.000265137242982 1.548994523189283 277.8528036168126 6.494384506291402
0.0156 6367.098099516435 1.000264635919231 1.548917415046175 277.7623531431753 6.453438464450658
0.0157 6367.112064123482 1.000264134041697 1.548840251705723 277.6715831973669 6.412577418229208
0.0158 6367.126077915746 1.000263631618169 1.548763033143877 277.5804935476539 6.371802580274627
0.0159 6367.140140928894 1.000263128656424 1.548685759337694 277.4890839621906 6.331115155009158
0.016 6367.154253198613 1.000262625164228 1.548608430265501 277.3973542090133 6.290516338556782
0.0161 6367.168414760606 1.000262121149332 1.548531045906714 277.3053040560634 6.250007318684031
0.0162 6367.182625650589 1.000261616619474 1.548453606242072 277.2129332711701 6.209589274723125
0.0163 6367.196885904296 1.000261111582381 1.548376111253369 277.1202416220739 6.169263377514026
0.0164 6367.211195557474 1.000260606045764 1.548298560923656 277.0272288764207 6.129030789334143
0.0165 6367.22555464588 1.00026010001732 1.548220955237163 276.9338948017797 6.088892663838972
0.0166 6367.239963205289 1.000259593504734 1.548143294179281 276.8402391656194 6.048850145985598
0.0167 6367.254421271484 1.000259086515673 1.548065577736592 276.7462617353552 6.00890437198735
0.0168 6367.268928880258 1.000258579057793 1.547987805896836 276.6519622783197 5.969056469236138
0.0169 6367.283486067419 1.000258071138733 1.547909978648963 276.5573405617746 5.929307556243328
0.017 6367.298092868779 1.000257562766116 1.547832095983047 276.4623963529342 5.889658742586134
0.0171 6367.312749320164 1.00025705394755 1.547754157890393 276.3671294189361 5.850111128832415
0.0172 6367.327455457404 1.000256544690627 1.547676164363406 276.2715395268764 5.810665806493463
0.0173 6367.342211316338 1.000256035002924 1.547598115395695 276.1756264438039 5.771323857960135
0.0174 6367.357016932811 1.000255524892 1.547520010982033 276.0793899367262 5.732086356444666
0.0175 6367.371872342675 1.000255014365398 1.54744185111833 275.9828297726093 5.692954365920843
0.0176 6367.386777581786 1.000254503430643 1.54736363580171 275.8859457183897 5.653928941069712
0.0177 6367.401732686004 1.000253992095243 1.547285365030381 275.7887375409745 5.615011127221243
0.0178 6367.416737691193 1.00025348036669 1.547207038803741 275.6912050072468 5.576201960299161
0.0179 6367.431792633221 1.000252968252455 1.54712865712233 275.5933478840665 5.537502466764187
0.018 6367.446897547956 1.000252455759995 1.547050219987824 275.4951659382872 5.498913663565086
0.0181 6367.462052471269 1.000251942896744 1.546971727403084 275.3966589367509 5.460436558081098
0.0182 6367.477257439034 1.000251429670121 1.546893179372061 275.2978266462818 5.422072148065304
0.0183 6367.492512487118 1.000250916087525 1.546814575899888 275.1986688337337 5.383821421609411
0.0184 6367.507817651395 1.000250402156335 1.546735916992773 275.0991852659307 5.34568535706805
0.0185 6367.523172967733 1.00024988788391 1.54665720265815 274.9993757097326 5.307664923031969
0.0186 6367.538578472001 1.000249373277592 1.546578432904502 274.8992399319931 5.26976107826099
0.0187 6367.55403420006 1.000248858344701 1.546499607741456 274.7987776996073 5.231974771651719
0.0188 6367.569540187774 1.000248343092536 1.5464207271798 274.6979887794704 5.19430694217244
0.0189 6367.585096470996 1.000247827528377 1.546341791231405 274.5968729385248 5.156758518832314
0.019 6367.60070308558 1.000247311659484 1.546262799909257 274.4954299437308 5.119330420622562
0.0191 6367.616360067371 1.000246795493093 1.546183753227472 274.3936595620897 5.082023556478414
0.0192 6367.632067452208 1.000246279036421 1.546104651201284 274.2915615606506 5.044838825235211
0.0193 6367.647825275923 1.000245762296664 1.546025493847008 274.1891357065036 5.007777115581085
0.0194 6367.663633574341 1.000245245280994 1.545946281182055 274.0863817667804 4.97083930601277
0.0195 6367.679492383279 1.000244727996563 1.545867013224991 273.9832995086834 4.934026264802879
0.0196 6367.695401738542 1.000244210450499 1.545787689995424 273.8798886994745 4.897338849953074
0.0197 6367.711361675927 1.00024369264991 1.545708311514089 273.7761491064742 4.860777909152493
0.0198 6367.72737223122 1.000243174601878 1.545628877802779 273.6720804970686 4.824344279739223
0.0199 6367.743433440196 1.000242656313464 1.545549388884381 273.5676826387261 4.788038788666721
0.02 6367.759545338618 1.000242137791707 1.545469844782882 273.4629552989803 4.751862252458757
0.0201 6367.775707962236 1.000241619043619 1.545390245523314 273.3578982454654 4.715815477183765
0.0202 6367.791921346788 1.000241100076191 1.545310591131831 273.2525112458806 4.679899258405588
0.0203 6367.808185527996 1.00024058089639 1.545230881635595 273.1467940680253 4.644114381159619
