#theta R n z T P_w
0 6365.5 1.000291275980178 1.560324351282931 288.15 4.092414806652497
0.0001 6365.506698014227 1.000291054586496 1.560245306739564 288.1064629075221 4.080955787627897
0.0002 6365.513446357025 1.000290831715797 1.560166245267185 288.0625986793387 4.069439176394381
0.0003 6365.520245039415 1.000290607371699 1.560087166744635 288.0184072438 4.057865533479983
0.0004 6365.527094072499 1.000290381557843 1.560008071051382 287.9738885287533 4.046235421621783
0.0005 6365.533993467458 1.00029015427789 1.559928958067391 287.9290424615259 4.034549405722452
0.0006000000000000001 6365.540943235546 1.000289925535521 1.559849827673275 287.8838689689486 4.022808052817449
0.0007 6365.547943388102 1.000289695334438 1.559770679750161 287.8383679773377 4.011011932031277
0.0008 6365.554993936538 1.000289463678363 1.559691514179754 287.7925394125012 3.999161614539775
0.0009000000000000001 6365.562094892345 1.00028923057104 1.55961233084434 287.7463831997565 3.987257673535305
0.001 6365.569246267091 1.000288996016232 1.559533129626693 287.6998992639063 3.9753006841811
0.0011 6365.57644807242 1.000288760017721 1.559453910410212 287.6530875292691 3.963291223579219
0.0012 6365.583700320052 1.00028852257931 1.559374673078784 287.6059479196605 3.95122987072616
0.0013 6365.591003021784 1.000288283704823 1.55929541751692 287.5584803584055 3.939117206475968
0.0014 6365.598356189486 1.000288043398102 1.559216143609596 287.5106847683386 3.926953813500167
0.0015 6365.605759835106 1.000287801663009 1.559136851242406 287.4625610718093 3.91474027624907
0.0016 6365.613213970665 1.000287558503425 1.559057540301451 287.4141091906766 3.90247718090997
0.0017 6365.62071860826 1.000287313923254 1.558978210673326 287.3653290463088 3.890165115366731
0.0018 6365.62827376006 1.000287067926413 1.558898862245266 287.3162205596071 3.877804669165214
0.0019 6365.63587943831 1.000286820516843 1.558819494905023 287.2667836509821 3.865396433466656
0.002 6365.643535655327 1.000286571698503 1.558740108540774 287.2170182403714 3.852941001011374
0.0021 6365.651242423502 1.00028632147537 1.558660703041363 287.1669242472398 3.840438966077895
0.0022 6365.658999755297 1.00028606985144 1.558581278296085 287.1165015905671 3.82789092443904
0.0023 6365.66680766325 1.000285816830727 1.558501834194841 287.0657501888721 3.815297473326751
0.0024 6365.674666159967 1.000285562417265 1.558422370628033 287.0146699602127 3.80265921139091
0.0025 6365.682575258129 1.000285306615106 1.55834288748656 286.9632608221617 3.789976738652224
0.0026 6365.690534970486 1.000285049428319 1.558263384661912 286.9115226918428 3.777250656469652
0.0027 6365.69854530986 1.000284790860993 1.558183862046032 286.8594554859068 3.764481567493138
0.0028 6365.706606289146 1.000284530917233 1.558104319531468 286.8070591205491 3.751670075626459
0.0029 6365.714717921305 1.000284269601164 1.558024757011274 286.7543335115159 3.738816785987053
0.003 6365.722880219371 1.000284006916928 1.557945174379015 286.7012785740866 3.725922304860005
0.0031 6365.731093196448 1.000283742868682 1.557865571528809 286.6478942230909 3.712987239660637
0.0032 6365.739356865707 1.000283477460606 1.557785948355226 286.5941803729037 3.700012198891247
0.0033 6365.74767124039 1.000283210696892 1.557706304753493 286.5401369374621 3.686997792103497
0.0034 6365.75603633381 1.000282942581752 1.557626640619262 286.4857638302364 3.673944629849336
0.0035 6365.764452159343 1.000282673119414 1.557546955848755 286.4310609642711 3.660853323648948
0.0036 6365.772918730437 1.000282402314124 1.557467250338695 286.3760282521615 3.647724485942982
0.0037 6365.781436060605 1.000282130170145 1.557387523986341 286.3206656060655 3.634558730053248
0.0038 6365.790004163432 1.000281856691754 1.557307776689448 286.2649729376916 3.62135667013774
0.0039 6365.798623052566 1.000281581883248 1.557228008346394 286.2089501583226 3.608118921154025
0.004 6365.807292741722 1.000281305748939 1.557148218855991 286.15259717881 3.594846098815544
0.0041 6365.816013244683 1.000281028293155 1.557068408117565 286.0959139095615 3.581538819546516
0.004200000000000001 6365.824784575298 1.000280749520241 1.556988576031014 286.0389002605656 3.568197700445159
0.0043 6365.833606747481 1.000280469434556 1.556908722496787 285.9815561413728 3.554823359237135
0.0044 6365.842479775212 1.000280188040477 1.556828847415785 285.9238814611202 3.541416414238656
0.004500000000000001 6365.851403672536 1.000279905342397 1.556748950689451 285.8658761285191 3.527977484311263
0.0046 6365.860378453561 1.000279621344723 1.55666903221983 285.807540051855 3.514507188819361
0.0047 6365.869404132463 1.000279336051878 1.556589091909353 285.748873138988 3.501006147587747
0.0048 6365.87848072348 1.000279049468302 1.556509129661107 285.6898752973819 3.48747498086589
0.0049 6365.887608240913 1.000278761598447 1.55642914537863 285.6305464340634 3.473914309275884
0.005 6365.896786699129 1.000278472446783 1.556349138966036 285.5708864556626 3.460324753779409
0.0051 6365.906016112554 1.000278182017792 1.55626911032792 285.5108952683962 3.446706935631106
0.005200000000000001 6365.915296495682 1.000277890315975 1.556189059369407 285.4505727780669 3.433061476336038
0.0053 6365.924627863065 1.000277597345844 1.556108985996171 285.3899188900754 3.419388997609823
0.0054 6365.934010229321 1.000277303111927 1.556028890114399 285.3289335094145 3.405690121334742
0.005500000000000001 6365.943443609125 1.000277007618766 1.555948771630809 285.2676165406868 3.391965469521181
0.0056 6365.952928017217 1.000276710870917 1.555868630452662 285.2059678880872 3.378215664261096
0.0057 6365.9624634684 1.000276412872952 1.555788466487682 285.1439874554025 3.364441327685528
0.0058 6365.972049977531 1.000276113629452 1.555708279644233 285.0816751460469 3.350643081929979
0.0059 6365.981687559534 1.000275813145018 1.555628069831074 285.0190308630271 3.336821549084024
0.006 6365.991376229391 1.000275511424262 1.555547836957573 284.9560545089593 3.322977351152803
0.0061 6366.001116002143 1.000275208471808 1.555467580933625 284.8927459860696 3.309111110014575
0.006200000000000001 6366.010906892891 1.000274904292294 1.555387301669655 284.8291051962059 3.295223447380897
0.0063 6366.020748916796 1.000274598890374 1.555306999076568 284.7651320408257 3.281314984751651
0.0064 6366.030642089076 1.000274292270712 1.55522667306586 284.7008264210084 3.267386343375289
0.006500000000000001 6366.040586425007 1.000273984437986 1.555146323549484 284.6361882374548 3.253438144206518
0.0066 6366.050581939928 1.000273675396887 1.555065950440016 284.5712173904698 3.23947100786024
0.0067 6366.060628649229 1.000273365152118 1.55498555365048 284.5059137800093 3.225485554579527
0.0068 6366.070726568363 1.000273053708396 1.554905133094481 284.4402773056394 3.21148240418455
0.006900000000000001 6366.080875712838 1.000272741070448 1.554824688686148 284.3743078665533 3.197462176034306
0.007 6366.091076098218 1.000272427243015 1.554744220340083 284.3080053615839 3.183425488987082
0.0071 6366.101327740124 1.00027211223085 1.554663727971518 284.2413696891916 3.16937296135595
0.007200000000000001 6366.111630654234 1.000271796038717 1.554583211496137 284.1744007474762 3.155305210869354
0.0073 6366.121984856281 1.000271478671393 1.554502670830193 284.1070984341708 3.141222854628013
0.0074 6366.132390362054 1.000271160133665 1.55442210589045 284.0394626466481 3.127126509064392
0.007500000000000001 6366.142847187396 1.000270840430333 1.554341516594225 283.971493281926 3.113016789902227
0.0076 6366.153355348206 1.000270519566208 1.554260902859402 283.9031902366618 3.098894312113674
0.0077 6366.163914860436 1.000270197546112 1.554180264604314 283.834553407164 3.084759689880218
0.007800000000000001 6366.174525740094 1.000269874374877 1.55409960174785 283.7655826893864 3.070613536549993
0.007900000000000001 6366.185188003242 1.000269550057349 1.554018914209513 283.6962779789282 3.05645646459643
0.008 6366.195901665993 1.00026922459838 1.553938201909251 283.6266391710454 3.042289085579416
0.0081 6366.206666744515 1.000268898002837 1.553857464767584 283.5566661606516 3.028112010104105
0.008200000000000001 6366.217483255028 1.000268570275596 1.553776702705546 283.4863588423171 3.013925847779829
0.0083 6366.228351213805 1.000268241421542 1.553695915644736 283.4157171102696 2.999731207179143
0.008400000000000001 6366.239270637169 1.000267911445571 1.553615103507301 283.3447408583996 2.985528695798145
0.008500000000000001 6366.250241541498 1.000267580352591 1.553534266215874 283.2734299802609 2.971318920015727
0.0086 6366.26126394322 1.000267248147517 1.553453403693621 283.20178436907 2.957102485052941
0.008700000000000001 6366.272337858813 1.000266914835274 1.553372515864315 283.1298039177126 2.942879994933659
0.008800000000000001 6366.283463304809 1.000266580420799 1.553291602652204 283.0574885187433 2.928652052444178
0.0089 6366.294640297785 1.000266244909035 1.553210663982127 282.9848380643974 2.914419259095264
0.009000000000000001 6366.305868854373 1.000265908304937 1.553129699779363 282.9118524465733 2.900182215078525
0.0091 6366.317148991253 1.000265570613469 1.553048709969841 282.8385315568561 2.885941519231035
0.0092 6366.328480725154 1.000265231839601 1.552967694479967 282.7648752864997 2.871697768991995
0.009300000000000001 6366.339864072854 1.000264891988316 1.552886653236696 282.6908835264506 2.857451560367582
0.0094 6366.351299051181 1.000264551064603 1.552805586167495 282.6165561673246 2.843203487886795
0.0095 6366.362785677009 1.00026420907346 1.552724493200446 282.5418930994414 2.828954144568814
0.009600000000000001 6366.374323967263 1.000263866019893 1.552643374264092 282.46689421279 2.814704121876907
0.0097 6366.385913938913 1.000263521908918 1.552562229287535 282.3915593970636 2.800454009686062
0.0098 6366.397555608979 1.000263176745557 1.552481058200452 282.3158885416364 2.78620439623949
0.009900000000000001 6366.409248994525 1.00026283053484 1.552399860933035 282.2398815355867 2.771955868114281
0.01 6366.420994112664 1.000262483281807 1.552318637416001 282.1635382676858 2.757709010180486
0.0101 6366.432790980553 1.000262134991503 1.552237387580578 282.0868586264031 2.743464405563744
0.0102 6366.444639615399 1.000261785668982 1.552156111358664 282.0098424999068 2.729222635606951
0.0103 6366.456540034451 1.000261435319306 1.552074808682536 281.9324897760692 2.714984279833208
0.0104 6366.468492255004 1.000261083947541 1.551993479485098 281.8548003424734 2.700749915908924
0.0105 6366.4804962944 1.000260731558763 1.551912123699803 281.7767740864005 2.686520119603851
0.0106 6366.492552170022 1.000260378158055 1.551830741260585 281.698410894854 2.672295464757791
0.0107 6366.504659899302 1.000260023750505 1.551749332101976 281.6197106545359 2.658076523238865
0.0108 6366.516819499711 1.000259668341208 1.551667896159026 281.5406732518762 2.643863864911644
0.0109 6366.529030988769 1.000259311935266 1.55158643336731 281.4612985730035 2.629658057594773
0.011 6366.541294384032 1.000258954537787 1.551504943662983 281.3815865037922 2.615459667032614
0.0111 6366.553609703106 1.000258596153885 1.551423426982704 281.301536929809 2.601269256849087
0.0112 6366.565976963637 1.000258236788681 1.551341883263671 281.2211497363609 2.587087388519679
0.0113 6366.578396183311 1.0002578764473 1.551260312443632 281.1404248084767 2.572914621332042
0.0114 6366.590867379859 1.000257515134874 1.551178714460909 281.0593620309195 2.558751512352055
0.0115 6366.603390571053 1.00025715285654 1.551097089254345 280.9779612881565 2.54459861638287
0.0116 6366.615965774704 1.00025678961744 1.551015436763253 280.8962224644246 2.530456485940662
0.0117 6366.628593008667 1.000256425422723 1.550933756927618 280.8141454436649 2.516325671207943
0.0118 6366.641272290835 1.000256060277542 1.550852049687825 280.7317301095703 2.502206720006632
0.0119 6366.654003639144 1.000255694187053 1.550770314984904 280.6489763455619 2.488100177759064
0.012 6366.666787071568 1.000255327156421 1.550688552760385 280.5658840348063 2.474006587456359
0.0121 6366.67962260612 1.000254959190811 1.550606762956329 280.4824530602222 2.459926489624947
0.0122 6366.692510260852 1.000254590295397 1.55052494551535 280.3986833044618 2.445860422289365
0.0123 6366.705450053858 1.000254220475354 1.55044310038062 280.3145746499234 2.4318089209403
0.0124 6366.718442003267 1.000253849735861 1.550361227495811 280.230126978763 2.417772518502847
0.0125 6366.731486127248 1.000253478082105 1.550279326805152 280.145340172888 2.403751745302015
0.0126 6366.744582444006 1.000253105519272 1.550197398253414 280.0602141139578 2.389747129029509
0.0127 6366.757730971787 1.000252732052557 1.550115441785878 279.9747486833834 2.375759194710771
0.0128 6366.77093172887 1.000252357687152 1.550033457348442 279.8889437623451 2.361788464675164
0.0129 6366.784184733574 1.000251982428259 1.549951444887458 279.8027992317692 2.34783545851965
0.013 6366.797490004252 1.000251606281079 1.549869404349855 279.7163149723632 2.333900693082362
0.0131 6366.810847559294 1.000251229250818 1.549787335683062 279.6294908645863 2.319984682405874
0.0132 6366.824257417129 1.000250851342685 1.54970523883509 279.5423267886612 2.306087937707486
0.0133 6366.837719596216 1.000250472561892 1.549623113754505 279.4548226245978 2.292210967351585
0.0134 6366.851234115052 1.000250092913652 1.549540960390315 279.3669782521637 2.278354276813819
0.0135 6366.864800992169 1.000249712403183 1.549458778692181 279.2787935509017 2.264518368653091
0.0136 6366.878420246133 1.000249331035705 1.549376568610184 279.190268400136 2.250703742481925
0.0137 6366.892091895544 1.000248948816438 1.549294330095037 279.1014026789661 2.236910894935262
0.0138 6366.905815959036 1.000248565750607 1.549212063097946 279.0121962662669 2.223140319640483
0.0139 6366.919592455275 1.000248181843439 1.549129767570638 278.9226490407121 2.209392507191368
0.014 6366.933421402963 1.00024779710016 1.549047443465385 278.8327608807393 2.195667945113222
0.0141 6366.947302820833 1.000247411525999 1.548965090735023 278.7425316645848 2.181967117839231
0.0142 6366.96123672765 1.00024702512619 1.548882709332875 278.6519612702781 2.168290506680716
0.0143 6366.975223142211 1.000246637905963 1.548800299212826 278.5610495756299 2.154638589796842
0.0144 6366.989262083345 1.000246249870554 1.548717860329271 278.4697964582559 2.141011842169978
0.0145 6367.003353569915 1.000245861025197 1.548635392637156 278.3782017955531 2.127410735574252
0.0146 6367.017497620812 1.000245471375128 1.548552896091935 278.2862654647232 2.113835738551514
0.0147 6367.031694254958 1.000245080925585 1.548470370649619 278.1939873427731 2.100287316384024
0.0148 6367.045943491306 1.000244689681806 1.548387816266729 278.1013673065085 2.086765931066617
0.0149 6367.06024534884 1.000244297649028 1.548305232900318 278.00840523254 2.07327204128093
0.015 6367.074599846572 1.000243904832492 1.548222620507972 277.9151009972833 2.059806102369077
0.0151 6367.089007003545 1.000243511237436 1.548139979047809 277.8214544769588 2.046368566307656
0.0152 6367.103466838831 1.0002431168691 1.548057308478443 277.7274655475979 2.032959881682933
0.0153 6367.117979371529 1.000242721732724 1.547974608759043 277.6331340850605 2.019580493668002
0.0154 6367.132544620768 1.000242325833546 1.547891879849324 277.5384599650055 2.00623084399355
0.0155 6367.147162605705 1.000241929176808 1.547809121709465 277.4434430629143 1.992911370926543
0.0156 6367.161833345524 1.000241531767748 1.547726334300219 277.3480832540912 1.979622509245856
0.0157 6367.176556859437 1.000241133611603 1.547643517582838 277.2523804136571 1.966364690217436
0.0158 6367.191333166682 1.000240734713614 1.547560671519109 277.1563344165673 1.95313834157308
0.0159 6367.206162286526 1.000240335079016 1.547477796071342 277.0599451375823 1.93994388748303
0.016 6367.221044238261 1.000239934713047 1.547394891202314 276.9632124513026 1.926781748537892
0.0161 6367.235979041206 1.000239533620941 1.547311956875419 276.8661362321635 1.91365234172514
0.0162 6367.250966714703 1.000239131807933 1.547228993054483 276.7687163544286 1.900556080406029
0.0163 6367.266007278124 1.000238729279256 1.547145999703907 276.6709526921962 1.887493374294456
0.0164 6367.281100750862 1.000238326040143 1.547062976788558 276.5728451193989 1.874464629435374
0.0165 6367.296247152337 1.000237922095822 1.546979924273872 276.4743935098098 1.86147024818436
0.0166 6367.311446501993 1.000237517451522 1.546896842125768 276.3755977370423 1.848510629186728
0.0167 6367.326698819299 1.000237112112471 1.546813730310675 276.2764576745561 1.8355861673578
0.0168 6367.342004123746 1.000236706083894 1.54673058879554 276.1769731956514 1.822697253861974
0.0169 6367.35736243485 1.000236299371012 1.546647417547832 276.0771441734745 1.809844276093722
0.017 6367.37277377215 1.000235891979047 1.546564216535534 275.9769704810241 1.797027617658934
0.0171 6367.388238155208 1.000235483913217 1.546480985727107 275.876451991145 1.784247658355101
0.0172 6367.403755603607 1.000235075178739 1.546397725091553 275.7755885765522 1.771504774155641
0.0173 6367.419326136955 1.000234665780825 1.54631443459839 275.6743801097949 1.758799337187086
0.0174 6367.434949774879 1.000234255724686 1.546231114217588 275.5728264632866 1.746131715714909
0.0175 6367.45062653703 1.000233845015531 1.546147763919681 275.4709275093045 1.733502274125939
0.0176 6367.466356443078 1.000233433658564 1.546064383675677 275.368683119996 1.720911372911896
0.0177 6367.482139512715 1.000233021658989 1.545980973457102 275.2660931673548 1.708359368649667
0.0178 6367.497975765655 1.000232609022002 1.545897533235971 275.1631575232444 1.695846613987826
0.0179 6367.51386522163 1.000232195752802 1.545814062984776 275.0598760594042 1.683373457631294
0.018 6367.529807900395 1.00023178185658 1.545730562676571 274.9562486474318 1.67094024432353
0.0181 6367.545803821722 1.000231367338523 1.545647032284859 274.8522751588065 1.658547314834123
0.0182 6367.561853005403 1.00023095220382 1.545563471783644 274.7479554648775 1.646195005942479
0.0183 6367.577955471251 1.000230536457649 1.545479881147453 274.6432894368698 1.633883650424038
0.0184 6367.594111239093 1.000230120105189 1.545396260351274 274.5382769458964 1.621613577037555
0.0185 6367.610320328779 1.000229703151614 1.545312609370615 274.432917862934 1.609385110508616
0.0186 6367.626582760177 1.000229285602094 1.545228928181444 274.3272120588471 1.597198571519103
0.0187 6367.64289855317 1.000228867461793 1.54514521676026 274.2211594043937 1.585054276694929
0.0188 6367.659267727661 1.000228448735872 1.545061475084006 274.1147597702019 1.572952538590792
0.0189 6367.675690303568 1.00022802942949 1.54497770313014 274.0080130268051 1.560893665682108
0.019 6367.69216630083 1.000227609547797 1.544893900876608 273.9009190446067 1.548877962349243
0.0191 6367.708695739396 1.000227189095941 1.544810068301829 273.7934776939272 1.536905728871519
0.0192 6367.725278639237 1.000226768079065 1.544726205384699 273.6856888449573 1.524977261410968
0.0193 6367.741915020339 1.000226346502307 1.544642312104629 273.5775523677988 1.513092852006429
0.0194 6367.758604902701 1.000225924370799 1.544558388441462 273.4690681324413 1.501252788560796
0.0195 6367.775348306341 1.000225501689671 1.544474434375541 273.3602360087856 1.489457354833886
0.0196 6367.792145251288 1.000225078464043 1.544390449887702 273.2510558666262 1.477706830431181
0.0197 6367.80899575759 1.000224654699034 1.544306434959235 273.141527575663 1.466001490796203
0.0198 6367.825899845308 1.000224230399755 1.544222389571908 273.0316510055012 1.454341607202009
0.0199 6367.842857534514 1.000223805571314 1.54413831370797 272.9214260256575 1.44272744674371
0.02 6367.859868845299 1.00022338021881 1.544054207350134 272.810852505554 1.431159272330158
0.0201 6367.876933797766 1.00022295434734 1.543970070481576 272.6999303145238 1.419637342677288
0.0202 6367.894052412028 1.000222527961992 1.54388590308594 272.5886593218178 1.408161912301856
0.0203 6367.911224708215 1.00022210106785 1.543801705147359 272.4770393966036 1.396733231514969
