#theta R n z T P_w
0 6365.5 1.00034955378692 1.560324351282931 288.15 17.05172836105207
0.0001 6365.506698014227 1.000349186814933 1.560259106771313 288.1064629075221 17.00398244844957
0.0002 6365.513437571611 1.000348818066746 1.560193815843691 288.0626557845306 16.95605896191979
0.0003 6365.520218701889 1.00034844754925 1.560128478271406 288.0185784377244 16.9079596373302
0.0004 6365.527041434948 1.000348075269366 1.560063093827066 287.9742306728384 16.85968621626143
0.0005 6365.53390580082 1.000347701234046 1.559997662284414 287.9296122946679 16.81124044594966
0.0006000000000000001 6365.540811829684 1.000347325450272 1.559932183418267 287.8847231070562 16.7626240791899
0.0007 6365.54775955186 1.000346947925059 1.559866657004793 287.8395629129126 16.71383887427093
0.0008 6365.554748997814 1.000346568665448 1.55980108282115 287.7941315142065 16.66488659488416
0.0009000000000000001 6365.561780198159 1.000346187678516 1.559735460645638 287.7484287119672 16.61576901003848
0.001 6365.568853183643 1.000345804971363 1.559669790257971 287.7024543063197 16.56648789401283
0.0011 6365.575967985163 1.000345420551124 1.559604071438742 287.656208096443 16.51704502622558
0.0012 6365.583124633752 1.000345034424961 1.559538303969928 287.6096898806117 16.46744219119254
0.0013 6365.590323160586 1.000344646600066 1.559472487634546 287.5628994561897 16.41768117843352
0.0014 6365.59756359698 1.00034425708366 1.559406622216913 287.5158366196309 16.36776378238496
0.0015 6365.604845974387 1.000343865882994 1.559340707502418 287.4685011664845 16.31769180231848
0.0016 6365.612170324399 1.000343473005347 1.559274743277661 287.4208928914071 16.26746704226513
0.0017 6365.619536678745 1.000343078458024 1.559208729330488 287.3730115881566 16.21709131092042
0.0018 6365.626945069293 1.000342682248363 1.559142665449912 287.3248570495983 16.16656642156162
0.0019 6365.634395528041 1.000342284383727 1.559076551426021 287.2764290677345 16.11589419198914
0.002 6365.641888087127 1.000341884871507 1.559010387050318 287.2277274336747 16.06507644440563
0.0021 6365.649422778822 1.000341483719124 1.558944172115297 287.1787519376593 16.01411500535036
0.0022 6365.65699963553 1.000341080934024 1.558877906414737 287.129502369054 15.96301170560235
0.0023 6365.664618689788 1.000340676523682 1.558811589743698 287.0799785163789 15.91176838011987
0.0024 6365.672279974267 1.0003402704956 1.558745221898236 287.0301801672675 15.86038686790598
0.0025 6365.679983521765 1.000339862857306 1.558678802675821 286.9801071085257 15.80886901197774
0.0026 6365.687729365215 1.000339453616354 1.558612331875062 286.9297591261019 15.75721665924319
0.0027 6365.695517537678 1.000339042780328 1.558545809295772 286.8791360050935 15.70543166041483
0.0028 6365.703348072342 1.000338630356834 1.558479234738942 286.8282375297762 15.65351586994659
0.0029 6365.711221002527 1.000338216353506 1.558412608006897 286.7770634835741 15.60147114591018
0.003 6365.719136361678 1.000337800778006 1.558345928903045 286.7256136490959 15.54929934993725
0.0031 6365.727094183366 1.000337383638017 1.558279197232133 286.6738878081222 15.49700234711304
0.0032 6365.735094501289 1.000336964941252 1.558212412800074 286.6218857416183 15.44458200589362
0.0033 6365.743137349273 1.000336544695445 1.558145575414057 286.5696072297272 15.39204019800492
0.0034 6365.751222761262 1.000336122908359 1.558078684882456 286.5170520517944 15.33937879837106
0.0035 6365.759350771331 1.000335699587778 1.558011741014913 286.4642199863491 15.28659968500076
0.0036 6365.767521413671 1.000335274741513 1.557944743622317 286.4111108111405 15.23370473892663
0.0037 6365.775734722599 1.000334848377399 1.557877692516738 286.3577243031076 15.18069584407909
0.0038 6365.783990732552 1.000334420503294 1.55781058751164 286.3040602384152 15.12757488722485
0.0039 6365.792289478086 1.000333991127081 1.557743428421569 286.2501183924418 15.0743437578578
0.004 6365.80063099388 1.000333560256664 1.557676215062418 286.1958985397795 15.02100434810157
0.0041 6365.80901531473 1.000333127899975 1.557608947251316 286.141400454252 14.96755855262905
0.004200000000000001 6365.81744247555 1.000332694064965 1.557541624806662 286.0866239089263 14.91400826857569
0.0043 6365.82591251137 1.000332258759609 1.557474247548078 286.0315686760949 14.86035539542347
0.0044 6365.834425457339 1.000331821991905 1.557406815296482 285.9762345272937 14.80660183491945
0.004500000000000001 6365.842981348721 1.000331383769874 1.557339327874123 285.9206212333137 14.75274949098786
0.0046 6365.851580220892 1.000330944101557 1.557271785104365 285.8647285642008 14.69880026963057
0.0047 6365.860222109347 1.00033050299502 1.557204186811985 285.8085562892446 14.64475607881576
0.0048 6365.86890704969 1.000330060458347 1.557136532822992 285.7521041770132 14.59061882841197
0.0049 6365.87763507764 1.000329616499646 1.557068822964658 285.6953719953416 14.53639043007611
0.005 6365.886406229025 1.000329171127047 1.55700105706557 285.6383595113379 14.48207279715837
0.0051 6365.895220539787 1.000328724348696 1.556933234955591 285.5810664913828 14.42766784460108
0.005200000000000001 6365.904078045976 1.000328276172766 1.556865356465859 285.5234927011537 14.3731774888599
0.0053 6365.912978783752 1.000327826607446 1.556797421428789 285.4656379056127 14.31860364779075
0.0054 6365.921922789382 1.000327375660946 1.5567294296782 285.4075018690181 14.26394824055913
0.005500000000000001 6365.930910099242 1.000326923341497 1.556661381049055 285.3490843549251 14.20921318753788
0.0056 6365.939940749815 1.000326469657349 1.556593275377711 285.290385126203 14.15440041022128
0.0057 6365.949014777688 1.000326014616771 1.556525112501822 285.2314039450292 14.09951183111669
0.0058 6365.958132219554 1.00032555822805 1.556456892260334 285.1721405728957 14.04454937364709
0.0059 6365.967293112213 1.000325100499495 1.556388614493508 285.1125947706145 13.98951496205329
0.006 6365.976497492564 1.00032464143943 1.556320279042918 285.0527662983353 13.93441052130678
0.0061 6365.985745397611 1.000324181056201 1.556251885751444 284.9926549155283 13.87923797698956
0.006200000000000001 6365.99503686446 1.000323719358168 1.556183434463319 284.9322603810132 13.82399925521733
0.0063 6366.004371930316 1.000323256353711 1.556114925024056 284.8715824529476 13.76869628252436
0.0064 6366.013750632486 1.000322792051227 1.556046357280534 284.8106208888388 13.71333098576982
0.006500000000000001 6366.023173008377 1.000322326459131 1.555977731080928 284.7493754455498 13.65790529203849
0.0066 6366.032639095492 1.000321859585855 1.555909046274744 284.6878458793052 13.60242112854117
0.0067 6366.042148931431 1.000321391439844 1.555840302712856 284.6260319456968 13.54688042251483
0.0068 6366.051702553895 1.000320922029564 1.555771500247434 284.5639333996841 13.49128510111737
0.006900000000000001 6366.061300000676 1.000320451363496 1.555702638732012 284.5015499956056 13.43563709133265
0.007 6366.070941309666 1.000319979450134 1.555633718021454 284.4388814871735 13.37993831985958
0.0071 6366.080626518846 1.000319506297991 1.555564737971972 284.3759276275026 13.32419071303247
0.007200000000000001 6366.090355666294 1.000319031915593 1.555495698441125 284.3126881690872 13.26839619669399
0.0073 6366.10012879018 1.000318556311482 1.555426599287825 284.2491628638303 13.21255669611508
0.0074 6366.109945928762 1.000318079494215 1.555357440372339 284.1853514630437 13.15667413588843
0.007500000000000001 6366.119807120396 1.000317601472362 1.555288221556277 284.1212537174246 13.10075043980128
0.0076 6366.129712403521 1.000317122254508 1.555218942702616 284.0568693771141 13.04478753078044
0.0077 6366.139661816669 1.000316641849251 1.555149603675683 283.9921981916508 12.98878733074411
0.007800000000000001 6366.149655398459 1.000316160265204 1.555080204341176 283.9272399100172 12.93275176053605
0.007900000000000001 6366.159693187596 1.000315677510991 1.555010744566179 283.8619942806284 12.87668273980805
0.008 6366.169775222874 1.000315193595252 1.554941224219065 283.7964610513203 12.82058218690262
0.0081 6366.179901543172 1.000314708526636 1.554871643169699 283.7306399693847 12.7644520187761
0.008200000000000001 6366.190072187452 1.000314222313807 1.554802001289225 283.6645307815637 12.70829415088606
0.0083 6366.200287194762 1.000313734965439 1.554732298450166 283.5981332340438 12.65211049707869
0.008400000000000001 6366.210546604233 1.00031324649022 1.554662534526483 283.5314470724851 12.59590296950627
0.008500000000000001 6366.220850455076 1.000312756896848 1.554592709393453 283.4644720420041 12.53967347850428
0.0086 6366.231198786585 1.000312266194031 1.554522822927787 283.3972078871969 12.48342393250357
0.008700000000000001 6366.241591638133 1.00031177439049 1.55445287500755 283.3296543521336 12.42715623791742
0.008800000000000001 6366.252029049176 1.000311281494955 1.55438286551216 283.261811180358 12.37087229903364
0.0089 6366.262511059243 1.000310787516167 1.554312794322501 283.1936781149174 12.3145740179311
0.009000000000000001 6366.273037707948 1.000310292462877 1.554242661320785 283.1252548983388 12.25826329435206
0.0091 6366.283609034975 1.000309796343844 1.554172466390642 283.0565412726645 12.20194202562329
0.0092 6366.294225080088 1.000309299167837 1.554102209417104 282.9875369794285 12.14561210652845
0.009300000000000001 6366.304885883124 1.000308800943636 1.554031890286574 282.9182417596916 12.08927542922898
0.0094 6366.315591483996 1.000308301680027 1.553961508886854 282.8486553540241 12.03293388314131
0.0095 6366.326341922691 1.000307801385805 1.553891065107188 282.7787775025116 11.97658935483358
0.009600000000000001 6366.337137239266 1.000307300069773 1.553820558838165 282.7086079447726 11.92024372793179
0.0097 6366.347977473851 1.000306797740742 1.553749989971833 282.6381464199702 11.86389888302103
0.0098 6366.358862666645 1.00030629440753 1.553679358401623 282.5673926668068 11.8075566975324
0.009900000000000001 6366.369792857921 1.000305790078963 1.553608664022349 282.4963464235115 11.75121904562555
0.01 6366.380768088017 1.000305284763872 1.553537906730258 282.4250074278879 11.69488779811818
0.0101 6366.391788397342 1.000304778471096 1.55346708642301 282.3533754172785 11.6385648223497
0.0102 6366.402853826367 1.000304271209478 1.553396202999689 282.2814501286119 11.58225198211053
0.0103 6366.413964415637 1.000303762987869 1.55332525636076 282.2092312983617 11.5259511375015
0.0104 6366.425120205755 1.000303253815126 1.55325424640813 282.1367186625934 11.46966414486302
0.0105 6366.436321237393 1.000302743700107 1.553183173045102 282.0639119569468 11.41339285665327
0.0106 6366.447567551285 1.000302232651678 1.553112036176448 281.990810916648 11.3571391213496
0.0107 6366.458859188228 1.00030172067871 1.553040835708296 281.9174152765212 11.30090478334997
0.0108 6366.47019618908 1.000301207790076 1.552969571548235 281.8437247709825 11.24469168286071
0.0109 6366.481578594761 1.000300693994654 1.552898243605265 281.769739134052 11.1885016557982
0.011 6366.493006446251 1.000300179301326 1.552826851789816 281.6954580993714 11.13233653369483
0.0111 6366.504479784588 1.000299663718974 1.55275539601375 281.6208814001806 11.0761981435739
0.0112 6366.515998650868 1.000299147256486 1.552683876190341 281.5460087693585 11.02008830787368
0.0113 6366.527563086246 1.000298629922753 1.552612292234289 281.4708399394002 10.96400884432264
0.0114 6366.539173131934 1.000298111726664 1.552540644061732 281.395374642428 10.90796156584157
0.0115 6366.550828829196 1.000297592677115 1.552468931590253 281.3196126102274 10.85194828046322
0.0116 6366.562530219352 1.000297072782999 1.552397154738862 281.2435535742114 10.79597079119937
0.0117 6366.574277343778 1.000296552053212 1.552325313427964 281.1671972654443 10.74003089595216
0.0118 6366.586070243899 1.000296030496652 1.55225340757944 281.0905434146533 10.68413038741653
0.0119 6366.597908961196 1.000295508122215 1.552181437116586 281.0135917522229 10.62827105296997
0.012 6366.609793537198 1.000294984938799 1.552109401964128 280.9363420082121 10.5724546745797
0.0121 6366.621724013485 1.0002944609553 1.55203730204826 280.8587939123494 10.51668302869282
0.0122 6366.633700431684 1.000293936180615 1.551965137296587 280.7809471940553 10.46095788614807
0.0123 6366.645722833473 1.00029341062364 1.55189290763816 280.7028015824256 10.40528101205794
0.0124 6366.657791260577 1.000292884293268 1.551820613003454 280.6243568062486 10.34965416571668
0.0125 6366.669905754768 1.000292357198393 1.551748253324395 280.5456125940108 10.29407910049991
0.0126 6366.682066357859 1.000291829347904 1.551675828534352 280.4665686739153 10.23855756377279
0.0127 6366.694273111714 1.000291300750691 1.551603338568108 280.3872247738576 10.18309129676931
0.0128 6366.706526058237 1.00029077141564 1.551530783361907 280.3075806214614 10.12768203451353
0.0129 6366.718825239374 1.000290241351632 1.551458162853467 280.2276359440665 10.07233150570774
0.013 6366.731170697116 1.000289710567547 1.551385476981872 280.1473904687467 10.01704143264168
0.0131 6366.743562473492 1.000289179072262 1.551312725687721 280.066843922304 9.961813531085561
0.0132 6366.756000610573 1.000288646874647 1.551239908912994 279.9859960312741 9.906649510191713
0.0133 6366.768485150467 1.000288113983571 1.551167026601149 279.9048465219624 9.851551072416532
0.0134 6366.781016135323 1.000287580407895 1.55109407869712 279.8233951204023 9.796519913390403
0.0135 6366.793593607325 1.000287046156478 1.551021065147162 279.7416415523907 9.741557721840397
0.0136 6366.806217608693 1.000286511238172 1.55094798589909 279.6595855434938 9.686666179493031
0.0137 6366.818888181687 1.000285975661824 1.550874840902104 279.5772268190357 9.631846960965575
0.0138 6366.831605368596 1.000285439436273 1.550801630106881 279.4945651041274 9.577101733685417
0.0139 6366.844369211745 1.000284902570354 1.55072835346551 279.4116001236556 9.522432157782156
0.014 6366.857179753492 1.000284365072894 1.550655010931534 279.3283316022997 9.467839885999711
0.0141 6366.870037036227 1.000283826952713 1.550581602459912 279.2447592645266 9.413326563593248
0.0142 6366.882941102369 1.000283288218623 1.550508128007098 279.1608828346019 9.358893828238182
0.0143 6366.89589199437 1.00028274887943 1.550434587530941 279.0767020365964 9.304543309935704
0.0144 6366.908889754708 1.00028220894393 1.550360980990743 278.9922165943975 9.250276630922482
0.0145 6366.921934425892 1.000281668420911 1.550287308347245 278.9074262317034 9.1960954055694
0.0146 6366.935026050456 1.000281127319152 1.550213569562602 278.822330672035 9.142001240292199
0.0147 6366.948164670962 1.000280585647422 1.550139764600478 278.7369296387477 9.087995733462467
0.0148 6366.961350329996 1.000280043414484 1.550065893425891 278.6512228550254 9.034080475307826
0.0149 6366.97458307017 1.000279500629086 1.549991956005341 278.5652100438923 8.980257047823923
0.015 6366.987862934119 1.00027895729997 1.54991795230677 278.478890928225 8.926527024686758
0.0151 6367.001189964501 1.000278413435864 1.549843882299524 278.3922652307464 8.87289197115445
0.0152 6367.014564203994 1.000277869045487 1.549769745954395 278.3053326740372 8.819353443980633
0.0153 6367.027985695301 1.000277324137546 1.549695543243658 278.2180929805426 8.765912991324631
0.0154 6367.041454481141 1.000276778720739 1.549621274140892 278.1305458725832 8.712572152665746
0.0155 6367.054970604254 1.000276232803747 1.549546938621259 278.0426910723498 8.659332458707258
0.0156 6367.068534107396 1.000275686395242 1.549472536661268 277.9545283019269 8.606195431298937
0.0157 6367.082145033344 1.000275139503883 1.549398068238846 277.8660572832626 8.553162583328003
0.0158 6367.09580342489 1.000274592138315 1.549323533333397 277.7772777382169 8.500235418656981
0.0159 6367.10950932484 1.000274044307171 1.549248931925705 277.6881893885428 8.447415432022906
0.016 6367.123262776016 1.000273496019068 1.549174263998008 277.5987919558992 8.394704108954953
0.0161 6367.137063821252 1.000272947282612 1.549099529533965 277.5090851618619 8.342102925692519
0.0162 6367.150912503398 1.000272398106392 1.549024728518631 277.4190687279123 8.289613349090073
0.0163 6367.164808865313 1.000271848498983 1.54894986093852 277.3287423754667 8.237236836546877
0.0164 6367.178752949868 1.000271298468945 1.548874926781542 277.2381058258587 8.184974835909692
0.0165 6367.192744799943 1.000270748024824 1.548799926037017 277.1471588003686 8.132828785403587
0.0166 6367.20678445843 1.000270197175146 1.548724858695695 277.0559010202059 8.080800113536093
0.0167 6367.220871968227 1.000269645928426 1.548649724749718 276.9643322065266 8.028890239022477
0.0168 6367.235007372238 1.000269094293159 1.548574524192674 276.8724520804516 7.977100570711475
0.0169 6367.249190713378 1.000268542277825 1.548499257019532 276.7802603630424 7.925432507488339
0.017 6367.263422034564 1.000267989890886 1.548423923226657 276.6877567753312 7.873887438208701
0.0171 6367.27770137872 1.000267437140786 1.548348522811871 276.5949410383204 7.82246674161635
0.0172 6367.292028788772 1.000266884035953 1.548273055774322 276.5018128729829 7.771171786261811
0.0173 6367.30640430765 1.000266330584794 1.54819752211464 276.408372000274 7.720003930428237
0.0174 6367.320827978286 1.0002657767957 1.548121921834787 276.3146181411429 7.66896452205788
0.0175 6367.33529984361 1.000265222677042 1.548046254938176 276.220551016533 7.618054898672824
0.0176 6367.349819946559 1.000264668237173 1.547970521429571 276.1261703473641 7.567276387287049
0.0177 6367.364388330065 1.000264113484425 1.54789472131512 276.0314758545795 7.516630304354383
0.0178 6367.379005037057 1.00026355842711 1.54781885460244 275.9364672591286 7.466117955681953
0.0179 6367.393670110466 1.000263003073521 1.547742921300422 275.8411442819723 7.415740636357319
0.018 6367.408383593218 1.00026244743193 1.5476669214194 275.7455066440838 7.365499630673304
0.0181 6367.423145528233 1.000261891510588 1.547590854971112 275.6495540664831 7.315396212072167
0.0182 6367.437955958429 1.000261335317725 1.547514721968623 275.5532862702142 7.265431643059459
0.0183 6367.452814926715 1.000260778861551 1.547438522426385 275.4567029763506 7.215607175134436
0.0184 6367.467722475997 1.00026022215025 1.547362256360239 275.3598039060188 7.165924048730346
0.0185 6367.482678649171 1.000259665191988 1.547285923787382 275.2625887803869 7.116383493137221
0.0186 6367.497683489127 1.000259107994907 1.547209524726381 275.1650573206761 7.066986726437741
0.0187 6367.512737038741 1.000258550567125 1.547133059197186 275.0672092481844 7.017734955449815
0.0188 6367.527839340883 1.00025799291674 1.547056527221043 274.9690442842633 6.968629375646052
0.0189 6367.542990438411 1.000257435051823 1.546979928820607 274.870562150329 6.919671171092276
0.019 6367.55819037417 1.000256876980424 1.546903264019908 274.7717625678923 6.870861514395501
0.0191 6367.573439190995 1.000256318710567 1.546826532844246 274.6726452585293 6.822201566623453
0.0192 6367.588736931705 1.000255760250253 1.546749735320331 274.5732099439164 6.773692477257237
0.0193 6367.604083639104 1.000255201607458 1.546672871476189 274.4734563458245 6.725335384124387
0.0194 6367.619479355983 1.000254642790131 1.546595941341208 274.3733841861134 6.677131413333034
0.0195 6367.634924125114 1.000254083806199 1.546518944946088 274.272993186761 6.629081679224126
0.0196 6367.650417989255 1.000253524663561 1.546441882322868 274.1722830698399 6.581187284298943
0.0197 6367.665960991146 1.000252965370092 1.546364753504889 274.0712535575525 6.533449319175916
0.0198 6367.681553173505 1.000252405933638 1.546287558526875 273.9699043722197 6.485868862525724
0.0199 6367.697194579035 1.000251846362021 1.546210297424807 273.8682352362747 6.438446981010418
0.02 6367.712885250415 1.000251286663034 1.546132970236007 273.7662458723042 6.391184729245574
0.0201 6367.728625230305 1.000250726844445 1.546055576999139 273.6639360030193 6.34408314973021
0.0202 6367.744414561343 1.000250166913994 1.54597811775411 273.5613053512728 6.297143272799885
0.0203 6367.760253286143 1.000249606879391 1.545900592542175 273.4583536400713 6.250366116577901
