#theta R n z T P_w
0 6365.5 1.000295876859657 1.560324351282931 288.15 5.115518508315622
0.0001 6365.506698014227 1.000295643972952 1.560246395617756 288.1064629075221 5.10119473453487
0.0002 6365.513445663821 1.000295409571755 1.560168420704327 288.0626031851656 5.086800447421994
0.0003 6365.520242961274 1.000295173660066 1.560090426409994 288.0184207517212 5.072336333442025
0.0004 6365.527089919167 1.000294936241902 1.560012412602871 287.9739155254123 5.057803081716283
0.0005 6365.533986550166 1.000294697321305 1.559934379151653 287.9290874239181 5.043201383983728
0.0006000000000000001 6365.540932867023 1.000294456902338 1.559856325925683 287.8839363643505 5.028531934546656
0.0007 6365.547928882574 1.000294214989088 1.559778252794915 287.8384622632715 5.013795430229757
0.0008 6365.554974609739 1.00029397158566 1.559700159629984 287.7926650366934 4.998992570333182
0.0009000000000000001 6365.562070061526 1.000293726696184 1.559622046302133 287.7465446000787 4.984124056585456
0.001 6365.569215251023 1.00029348032481 1.559543912683207 287.7001008683518 4.969190593100026
0.0011 6365.576410191402 1.00029323247571 1.559465758645712 287.6533337558875 4.954192886324026
0.0012 6365.583654895919 1.000292983153075 1.559387584062822 287.6062431765284 4.939131644996383
0.0013 6365.590949377914 1.00029273236112 1.559309388808176 287.5588290435616 4.924007580092518
0.0014 6365.598293650805 1.00029248010408 1.559231172756203 287.5110912697654 4.908821404791543
0.0015 6365.605687728098 1.00029222638621 1.559152935781921 287.4630297673629 4.893573834413119
0.0016 6365.613131623375 1.000291971211788 1.559074677760849 287.4146444480624 4.878265586382438
0.0017 6365.620625350302 1.000291714585108 1.55899639856926 287.3659352230346 4.862897380174354
0.0018 6365.628168922624 1.000291456510491 1.55891809808396 287.3169020029417 4.847469937274245
0.0019 6365.635762354169 1.00029119699227 1.558839776182469 287.2675446979018 4.831983981118195
0.002 6365.643405658843 1.000290936034807 1.558761432742728 287.217863217519 4.816440237053574
0.0021 6365.651098850632 1.000290673642476 1.558683067643527 287.1678574708948 4.80083943229381
0.0022 6365.658841943599 1.000290409819677 1.558604680764079 287.1175273666043 4.785182295861967
0.0023 6365.666634951891 1.000290144570827 1.558526271984314 287.0668728127088 4.769469558545303
0.0024 6365.674477889727 1.000289877900361 1.558447841184755 287.0158937167724 4.753701952851524
0.0025 6365.68237077141 1.000289609812736 1.558369388246504 286.9645899858336 4.737880212950223
0.0026 6365.690313611317 1.000289340312428 1.558290913051304 286.91296152644 4.72200507463438
0.0027 6365.698306423902 1.000289069403931 1.558212415481462 286.8610082446365 4.706077275267076
0.0028 6365.706349223698 1.000288797091758 1.558133895419953 286.80873004596 4.690097553729987
0.0029 6365.714442025313 1.000288523380441 1.558055352750343 286.7561268354624 4.674066650380805
0.003 6365.722584843433 1.000288248274532 1.557976787356816 286.7031985176872 4.657985306996115
0.0031 6365.730777692816 1.0002879717786 1.557898199124069 286.649944996699 4.641854266730379
0.0032 6365.739020588298 1.000287693897233 1.557819587937548 286.5963661760601 4.62567427405867
0.0033 6365.747313544792 1.000287414635036 1.557740953683201 286.5424619588538 4.609446074733645
0.0034 6365.755656577279 1.000287133996634 1.557662296247676 286.4882322476846 4.59317041573525
0.0035 6365.764049700821 1.000286851986669 1.557583615518138 286.4336769446603 4.576848045215044
0.0036 6365.77249293055 1.000286568609801 1.557504911382385 286.3787959514219 4.560479712454658
0.0037 6365.780986281675 1.000286283870706 1.557426183728876 286.3235891691137 4.544066167806456
0.0038 6365.789529769471 1.00028599777408 1.55734743244662 286.2680564984365 4.527608162658816
0.0039 6365.798123409294 1.000285710324635 1.557268657425238 286.2121978395888 4.511106449367913
0.004 6365.806767216566 1.0002854215271 1.557189858554995 286.1560130923198 4.494561781222821
0.0041 6365.815461206785 1.000285131386221 1.557111035726745 286.0995021558996 4.477974912386003
0.004200000000000001 6365.824205395516 1.000284839906762 1.557032188831936 286.0426649291434 4.46134659784948
0.0043 6365.8329997984 1.000284547093502 1.556953317762646 285.9855013103992 4.444677593380487
0.0044 6365.841844431146 1.000284252951237 1.55687442241152 285.928011197548 4.427968655470606
0.004500000000000001 6365.850739309534 1.000283957484781 1.556795502671912 285.8701944880276 4.411220541291707
0.0046 6365.859684449413 1.000283660698962 1.556716558437654 285.8120510788143 4.394434008639783
0.0047 6365.868679866704 1.000283362598624 1.5566375896033 285.7535808664237 4.377609815883985
0.0048 6365.877725577394 1.00028306318863 1.556558596063907 285.6947837469396 4.360748721924082
0.0049 6365.88682159754 1.000282762473855 1.556479577715281 285.6356596159907 4.343851486132561
0.005 6365.895967943269 1.000282460459192 1.55640053445372 285.5762083687504 4.32691886830358
0.0051 6365.905164630774 1.000282157149547 1.556321466176172 285.5164298999665 4.309951628610291
0.005200000000000001 6365.914411676317 1.000281852549844 1.556242372780215 285.4563241039376 4.292950527546957
0.0053 6365.923709096227 1.000281546665021 1.556163254164015 285.3958908745248 4.275916325881205
0.0054 6365.933056906898 1.00028123950003 1.556084110226342 285.3351301051633 4.258849784606197
0.005500000000000001 6365.942455124794 1.000280931059839 1.556004940866666 285.2740416888395 4.241751664882847
0.0056 6365.951903766441 1.00028062134943 1.555925745984926 285.2126255181314 4.224622728000284
0.0057 6365.961402848434 1.0002803103738 1.555846525481769 285.1508814851799 4.207463735316423
0.0058 6365.970952387433 1.000279998137959 1.555767279258492 285.0888094816881 4.190275448206885
0.0059 6365.980552400159 1.000279684646933 1.555688007216883 285.0264093989634 4.173058628025361
0.006 6365.990202903404 1.000279369905761 1.555608709259464 284.9636811278755 4.155814036041029
0.0061 6365.999903914018 1.000279053919494 1.555529385289321 284.9006245588802 4.138542433394049
0.006200000000000001 6366.00965544892 1.000278736693199 1.55545003521017 284.8372395820196 4.1212445810445
0.0063 6366.019457525089 1.000278418231957 1.55537065892631 284.7735260869221 4.103921239721376
0.0064 6366.029310159567 1.00027809854086 1.555291256342702 284.7094839628138 4.086573169874805
0.006500000000000001 6366.03921336946 1.000277777625014 1.555211827364916 284.6451130985073 4.069201131621896
0.0066 6366.049167171936 1.000277455489538 1.555132371899131 284.580413382413 4.051805884699051
0.0067 6366.059171584225 1.000277132139565 1.555052889852135 284.5153847025393 4.034388188411102
0.0068 6366.069226623616 1.000276807580238 1.554973381131385 284.4500269464987 4.016948801582095
0.006900000000000001 6366.079332307462 1.000276481816715 1.55489384564488 284.3843400014956 3.999488482501386
0.007 6366.089488653176 1.000276154854165 1.554814283301318 284.3183237543561 3.982007988880838
0.0071 6366.099695678229 1.000275826697768 1.554734694009973 284.2519780915103 3.964508077799439
0.007200000000000001 6366.109953400157 1.00027549735272 1.554655077680721 284.1853028989802 3.946989505649682
0.0073 6366.120261836549 1.000275166824223 1.554575434224139 284.1182980624334 3.929453028101074
0.0074 6366.130621005057 1.000274835117495 1.55449576355137 284.0509634671292 3.911899400035725
0.007500000000000001 6366.141030923392 1.000274502237765 1.55441606557417 283.9832989979549 3.894329375507338
0.0076 6366.151491609321 1.00027416819027 1.554336340204967 283.9153045394131 3.876743707687871
0.0077 6366.162003080672 1.000273832980263 1.554256587356731 283.8469799756343 3.859143148820453
0.007800000000000001 6366.172565355326 1.000273496613003 1.554176806943169 283.7783251903824 3.841528450170817
0.007900000000000001 6366.183178451225 1.000273159093763 1.554096998878544 283.7093400670368 3.823900361972776
0.008 6366.193842386367 1.000272820427826 1.554017163077741 283.6400244886166 3.806259633384438
0.0081 6366.204557178804 1.000272480620485 1.553937299456325 283.5703783377743 3.788607012436906
0.008200000000000001 6366.215322846647 1.000272139677043 1.553857407930387 283.5004014967957 3.770943245984638
0.0083 6366.226139408061 1.000271797602812 1.553777488416767 283.4300938476061 3.753269079657414
0.008400000000000001 6366.237006881265 1.000271454403118 1.553697540832834 283.3594552717763 3.735585257812386
0.008500000000000001 6366.247925284537 1.000271110083292 1.553617565096655 283.2884856505101 3.717892523481833
0.0086 6366.258894636204 1.000270764648677 1.553537561126885 283.2171848646748 3.700191618331365
0.008700000000000001 6366.26991495465 1.000270418104624 1.553457528842814 283.1455527947768 3.682483282604971
0.008800000000000001 6366.280986258311 1.000270070456496 1.553377468164389 283.0735893209797 3.664768255080524
0.0089 6366.292108565678 1.000269721709661 1.553297379012145 283.0012943230926 3.647047273018095
0.009000000000000001 6366.303281895293 1.000269371869499 1.553217261307247 282.9286676805931 3.629321072117141
0.0091 6366.314506265752 1.000269020941398 1.553137114971557 282.8557092726104 3.611590386463671
0.0092 6366.325781695701 1.000268668930753 1.55305693992751 282.7824189779425 3.593855948486244
0.009300000000000001 6366.33710820384 1.00026831584297 1.552976736098135 282.7087966750386 3.576118488903508
0.0094 6366.348485808918 1.00026796168346 1.552896503407189 282.6348422420346 3.558378736684754
0.0095 6366.359914529736 1.000267606457645 1.552816241779009 282.5605555567175 3.540637418993513
0.009600000000000001 6366.371394385144 1.000267250170952 1.552735951138523 282.4859364965672 3.522895261149808
0.0097 6366.382925394043 1.000266892828819 1.552655631411389 282.4109849387204 3.505152986574158
0.0098 6366.394507575385 1.000266534436688 1.552575282523815 282.3357007600006 3.487411316747306
0.009900000000000001 6366.406140948167 1.00026617500001 1.552494904402676 282.260083836912 3.469670971161637
0.01 6366.417825531439 1.000265814524244 1.552414496975464 282.1841340456457 3.451932667275595
0.0101 6366.429561344298 1.000265453014854 1.552334060170326 282.1078512620614 3.434197120462779
0.0102 6366.441348405888 1.000265090477311 1.552253593916029 282.0312353617295 3.41646504397501
0.0103 6366.453186735402 1.000264726917095 1.552173098141969 281.954286219889 3.398737148886315
0.0104 6366.465076352079 1.000264362339691 1.552092572778175 281.8770037114836 3.381014144054984
0.0105 6366.477017275206 1.000263996750588 1.552012017755326 281.7993877111611 3.363296736077538
0.0106 6366.489009524114 1.000263630155284 1.551931433004728 281.7214380932563 3.3455856292389
0.0107 6366.501053118183 1.000263262559282 1.551850818458303 281.6431547318083 3.327881525470908
0.0108 6366.513148076838 1.000262893968091 1.551770174048626 281.5645375005546 3.310185124305638
0.0109 6366.525294419545 1.000262524387226 1.551689499708902 281.4855862729549 3.292497122835614
0.011 6366.537492165821 1.000262153822204 1.551608795372993 281.4063009221617 3.274818215662257
0.0111 6366.549741335225 1.000261782278553 1.551528060975317 281.3266813210374 3.257149094855252
0.0112 6366.562041947358 1.000261409761801 1.551447296451024 281.2467273421729 3.23949044991204
0.0113 6366.574394021866 1.000261036277484 1.55136650173585 281.1664388578691 3.221842967709681
0.0114 6366.586797578439 1.00026066183114 1.551285676766158 281.0858157401493 3.204207332463525
0.0115 6366.599252636807 1.000260286428315 1.551204821478965 281.0048578607528 3.186584225682226
0.0116 6366.611759216747 1.000259910074556 1.551123935811906 280.9235650911413 3.16897432612561
0.0117 6366.624317338074 1.000259532775415 1.551043019703269 280.8419373025162 3.151378309765314
0.0118 6366.636927020647 1.00025915453645 1.550962073091946 280.7599743657951 3.133796849736738
0.0119 6366.649588284364 1.000258775363221 1.550881095917493 280.6776761516356 3.11623061630148
0.012 6366.662301149165 1.000258395261293 1.550800088120088 280.5950425304294 3.098680276803654
0.0121 6366.67506563503 1.000258014236231 1.550719049640537 280.5120733723019 3.081146495627761
0.0122 6366.68788176198 1.000257632293609 1.550637980420287 280.4287685471303 3.063629934160583
0.0123 6366.700749550076 1.000257249438999 1.550556880401407 280.3451279245081 3.046131250742145
0.0124 6366.713669019414 1.000256865677978 1.550475749526609 280.2611513738101 3.028651100638061
0.0125 6366.726640190134 1.000256481016127 1.550394587739251 280.1768387641272 3.011190135984911
0.0126 6366.739663082411 1.000256095459028 1.55031339498328 280.0921899643257 2.993749005761844
0.0127 6366.752737716462 1.000255709012266 1.550232171203305 280.0072048430001 2.976328355740353
0.0128 6366.765864112535 1.000255321681428 1.550150916344573 279.92188326852 2.95892882845391
0.0129 6366.779042290921 1.000254933472103 1.550069630352972 279.8362251090128 2.941551063154447
0.013 6366.792272271945 1.000254544389884 1.549988313174957 279.7502302323577 2.924195695771658
0.0131 6366.80555407597 1.000254154440363 1.549906964757678 279.6638985061971 2.906863358876209
0.0132 6366.818887723392 1.000253763629135 1.54982558504889 279.5772297979491 2.889554681643201
0.0133 6366.832273234648 1.000253371961796 1.549744173997 279.4902239747893 2.872270289810026
0.0134 6366.845710630204 1.000252979443944 1.549662731550999 279.4028809036744 2.855010805642838
0.0135 6366.859199930565 1.000252586081177 1.549581257660542 279.3152004513248 2.837776847895086
0.0136 6366.87274115627 1.000252191879096 1.549499752275912 279.2271824842481 2.820569031774578
0.0137 6366.886334327889 1.0002517968433 1.549418215348002 279.1388268687214 2.803387968902716
0.0138 6366.899979466029 1.000251400979391 1.54933664682834 279.0501334708086 2.786234267281024
0.0139 6366.913676591331 1.000251004292969 1.549255046669087 278.9611021563495 2.769108531252262
0.014 6366.927425724464 1.000250606789638 1.54917341482301 278.8717327909825 2.752011361468718
0.0141 6366.941226886133 1.000250208474999 1.549091751243535 278.7820252401333 2.734943354854
0.0142 6366.955080097076 1.000249809354654 1.549010055884676 278.6919793690089 2.717905104566368
0.0143 6366.968985378057 1.000249409434204 1.548928328701113 278.6015950426271 2.700897199969127
0.0144 6366.982942749878 1.000249008719251 1.548846569648101 278.5108721257928 2.683920226591286
0.0145 6366.996952233369 1.000248607215396 1.548764778681564 278.4198104830983 2.66697476609311
0.0146 6367.011013849391 1.00024820492824 1.548682955757983 278.3284099789583 2.650061396238608
0.0147 6367.025127618834 1.00024780186338 1.548601100834538 278.2366704775808 2.633180690856242
0.0148 6367.039293562617 1.000247398026416 1.548519213868985 278.1445918429903 2.61633321980991
0.0149 6367.053511701692 1.000246993422945 1.548437294819702 278.0521739390045 2.599519548961592
0.015 6367.067782057036 1.000246588058562 1.548355343645704 277.959416629264 2.582740240144127
0.0151 6367.082104649657 1.000246181938862 1.548273360306587 277.8663197772315 2.565995851128898
0.0152 6367.096479500588 1.000245775069438 1.54819134476262 277.7728832461752 2.549286935590758
0.0153 6367.110906630895 1.00024536745588 1.548109296974633 277.6791068991855 2.532614043079743
0.0154 6367.125386061665 1.000244959103778 1.548027216904118 277.5849905991757 2.515977718989961
0.0155 6367.139917814017 1.000244550018718 1.54794510451313 277.4905342088877 2.49937850452992
0.0156 6367.154501909095 1.000244140206285 1.547862959764398 277.3957375908857 2.482816936691165
0.0157 6367.169138368067 1.000243729672061 1.547780782621203 277.3006006075628 2.466293548219417
0.0158 6367.18382721213 1.000243318421625 1.547698573047473 277.2051231211525 2.449808867587106
0.0159 6367.198568462506 1.000242906460554 1.547616331007742 277.1093049937107 2.433363418961189
0.016 6367.213362140439 1.000242493794423 1.547534056467168 277.0131460871456 2.416957722179542
0.0161 6367.228208267202 1.000242080428801 1.54745174939147 276.9166462631882 2.400592292717609
0.0162 6367.243106864088 1.000241666369257 1.547369409747011 276.8198053834275 2.384267641666571
0.0163 6367.258057952417 1.000241251621356 1.547287037500756 276.7226233092869 2.367984275701869
0.0164 6367.273061553533 1.000240836190657 1.547204632620259 276.6250999020361 2.351742697058176
0.0165 6367.2881176888 1.000240420082717 1.547122195073726 276.5272350228032 2.33554340350475
0.0166 6367.303226379605 1.000240003303091 1.547039724829882 276.4290285325682 2.319386888318233
0.0167 6367.31838764736 1.000239585857328 1.546957221858153 276.3304802921574 2.303273640255923
0.0168 6367.333601513498 1.000239167750972 1.546874686128455 276.2315901622613 2.287204143533368
0.0169 6367.348867999473 1.000238748989566 1.546792117611395 276.1323580034226 2.271178877797531
0.017 6367.364187126761 1.000238329578645 1.546709516278123 276.0327836760538 2.2551983181052
0.0171 6367.379558916857 1.000237909523742 1.546626882100423 275.9328670404315 2.239262934898
0.0172 6367.394983391277 1.000237488830385 1.546544215050643 275.8326079566963 2.223373193978799
0.0173 6367.41046057156 1.000237067504095 1.54646151510175 275.7320062848588 2.207529556489531
0.0174 6367.425990479262 1.000236645550391 1.54637878222726 275.6310618847996 2.191732478888488
0.0175 6367.441573135958 1.000236222974785 1.546296016401344 275.5297746162749 2.175982412929014
0.0176 6367.457208563243 1.000235799782785 1.546213217598706 275.4281443389231 2.160279805638608
0.0177 6367.47289678273 1.000235375979892 1.546130385794661 275.326170912252 2.144625099295754
0.0178 6367.488637816053 1.000234951571603 1.546047520965107 275.2238541956575 2.129018731411779
0.0179 6367.50443168486 1.000234526563408 1.545964623086545 275.1211940484112 2.113461134708604
0.018 6367.520278410817 1.000234100960794 1.545881692136014 275.0181903296901 2.097952737103259
0.0181 6367.53617801561 1.000233674769237 1.545798728091186 274.9148428985353 2.082493961682109
0.0182 6367.552130520939 1.000233247994212 1.545715730930257 274.8111516138932 2.067085226688063
0.0183 6367.568135948522 1.000232820641184 1.545632700632074 274.7071163346099 2.051726945501055
0.0184 6367.584194320091 1.000232392715616 1.545549637175989 274.602736919407 2.036419526616454
0.0185 6367.600305657397 1.000231964222959 1.545466540541979 274.4980132269178 2.021163373632665
0.0186 6367.616469982203 1.000231535168661 1.545383410710559 274.3929451156808 2.005958885233051
0.0187 6367.632687316289 1.000231105558164 1.545300247662838 274.2875324441223 1.990806455166665
0.0188 6367.648957681449 1.000230675396901 1.545217051380488 274.1817750705799 1.975706472235479
0.0189 6367.665281099491 1.000230244690297 1.545133821845754 274.0756728533082 1.960659320279437
0.019 6367.681657592237 1.000229813443773 1.545050559041443 273.9692256504617 1.94566537815866
0.0191 6367.698087181521 1.000229381662741 1.544967262950927 273.8624333201118 1.930725019741181
0.0192 6367.714569889194 1.000228949352606 1.544883933558154 273.7552957202414 1.915838613887799
0.0193 6367.731105737115 1.000228516518765 1.544800570847598 273.6478127087506 1.90100652443909
0.0194 6367.74769474716 1.000228083166608 1.54471717480432 273.5399841434627 1.886229110202872
0.0195 6367.764336941213 1.000227649301516 1.544633745413946 273.431809882118 1.871506724940539
0.0196 6367.781032341172 1.000227214928865 1.544550282662637 273.3232897823804 1.856839717355516
0.0197 6367.797780968948 1.000226780054019 1.544466786537115 273.2144237018364 1.84222843108138
0.0198 6367.814582846461 1.000226344682337 1.544383257024639 273.1052114980019 1.827673204671284
0.0199 6367.83143799564 1.000225908819169 1.544299694113048 272.9956530283397 1.813174371589398
0.02 6367.848346438427 1.000225472469855 1.544216097790709 272.8857481502235 1.798732260195782
0.0201 6367.865308196773 1.00022503563973 1.544132468046528 272.7754967209743 1.784347193741199
0.0202 6367.88232329264 1.000224598334117 1.544048804869968 272.6648985978417 1.770019490355355
0.0203 6367.899391747997 1.000224160558331 1.543965108251046 272.5539536380223 1.755749463040292
