#theta R n z T P_w
0 6365.5 1.000295110046411 1.560324351282931 288.15 4.945001224705101
0.0001 6365.506698014227 1.000294879075209 1.560246214130934 288.1064629075221 4.931154910050374
0.0002 6365.513445779359 1.000294646595597 1.560168058117343 288.0626024341649 4.917240194548861
0.0003 6365.520243307644 1.000294412611511 1.560089883111426 288.0184185003153 4.903257744071253
0.0004 6365.527090611416 1.000294177126908 1.560011688983064 287.9739110257987 4.889208227071195
0.0005 6365.533987703092 1.000293940145768 1.55993347560284 287.9290799299023 4.875092314547593
0.0006000000000000001 6365.540934595176 1.000293701672092 1.559855242841921 287.8839251313578 4.860910679993647
0.0007 6365.547931300253 1.000293461709902 1.559776990572156 287.8384465483531 4.846663999355044
0.0008 6365.554977830995 1.000293220263243 1.559698718665916 287.7926440985319 4.832352950984277
0.0009000000000000001 6365.562074200154 1.000292977336181 1.559620426996273 287.7465176990003 4.817978215596607
0.001 6365.569220420565 1.000292732932803 1.559542115436877 287.7000672663261 4.803540476224042
0.0011 6365.576416505147 1.000292487057217 1.559463783861998 287.6532927165453 4.789040418170974
0.0012 6365.583662466899 1.000292239713553 1.559385432146513 287.6061939651557 4.774478728965999
0.0013 6365.590958318904 1.00029199090596 1.559307060166001 287.5587709271234 4.759856098317266
0.0014 6365.598304074324 1.000291740638611 1.559228667796453 287.5110235168939 4.745173218069461
0.0015 6365.605699746402 1.000291488915696 1.559150254914671 287.4629516483868 4.730430782155173
0.0016 6365.613145348463 1.000291235741427 1.559071821397909 287.4145552349895 4.715629486546159
0.0017 6365.62064089391 1.000290981120037 1.558993367124174 287.365834189587 4.700770029215293
0.0018 6365.628186396228 1.000290725055779 1.558914891971884 287.3167884245203 4.685853110076724
0.0019 6365.635781868978 1.000290467552925 1.558836395820274 287.2674178516398 4.670879430954738
0.002 6365.643427325804 1.000290208615767 1.558757878549048 287.2177223822758 4.655849695527246
0.0021 6365.651122780425 1.00028994824862 1.558679340038478 287.1677019272382 4.640764609278214
0.0022 6365.658868246639 1.000289686455814 1.558600780169569 287.1173563968463 4.625624879458853
0.0023 6365.666663738323 1.000289423241701 1.558522198823809 287.066685700899 4.610431215030831
0.0024 6365.674509269431 1.000289158610652 1.558443595883357 287.0156897486989 4.595184326625443
0.0025 6365.682404853992 1.000288892567057 1.558364971230934 286.9643684490519 4.579884926495499
0.0026 6365.690350506115 1.000288625115327 1.558286324749832 286.9127217102554 4.564533728463603
0.0027 6365.698346239981 1.000288356259889 1.558207656324013 286.860749440122 4.54913144788091
0.0028 6365.706392069851 1.00028808600519 1.558128965837943 286.8084515459681 4.533678801575185
0.0029 6365.71448801006 1.000287814355696 1.558050253176795 286.755827934613 4.518176507802324
0.003 6365.722634075016 1.000287541315892 1.557971518226223 286.7028785123974 4.502625286202992
0.0031 6365.730830279205 1.000287266890279 1.557892760872551 286.6496031851656 4.487025857748709
0.0032 6365.739076637185 1.00028699108338 1.557813981002678 286.5960018582945 4.471378944701742
0.0033 6365.74737316359 1.000286713899733 1.557735178504077 286.5420744366646 4.455685270557598
0.0034 6365.755719873127 1.000286435343894 1.557656353264824 286.4878208246777 4.439945560001279
0.0035 6365.764116780573 1.000286155420439 1.557577505173641 286.4332409262742 4.424160538863406
0.0036 6365.772563900783 1.00028587413396 1.557498634119783 286.3783346449098 4.408330934064255
0.0037 6365.781061248681 1.000285591489067 1.557419739993083 286.3231018835735 4.392457473569732
0.0038 6365.789608839264 1.000285307490386 1.557340822684072 286.2675425447809 4.37654088634046
0.0039 6365.798206687602 1.000285022142563 1.557261882083737 286.2116565305868 4.360581902285866
0.004 6365.806854808834 1.000284735450258 1.557182918083775 286.1554437425788 4.34458125221315
0.0041 6365.815553218173 1.00028444741815 1.557103930576388 286.0989040818775 4.328539667777893
0.004200000000000001 6365.824301930898 1.000284158050933 1.557024919454466 286.0420374491604 4.312457881441318
0.0043 6365.833100962363 1.00028386735332 1.556945884611407 285.9848437446375 4.296336626414071
0.0044 6365.841950327991 1.000283575330038 1.556866825941265 285.927322868058 4.280176636608379
0.004500000000000001 6365.850850043271 1.000283281985831 1.556787743338667 285.8694747187395 4.263978646596781
0.0046 6365.859800123765 1.00028298732546 1.556708636698827 285.8112991955267 4.247743391550887
0.0047 6365.868800585102 1.000282691353701 1.556629505917567 285.7527961968384 4.231471607204973
0.0048 6365.877851442978 1.000282394075347 1.556550350891288 285.6939656206445 4.215164029799674
0.0049 6365.88695271316 1.000282095495204 1.556471171517001 285.6348073644593 4.198821396030668
0.005 6365.896104411481 1.000281795618096 1.556391967692359 285.5753213253719 4.182444443007163
0.0051 6365.905306553842 1.000281494448862 1.556312739315549 285.5155074000276 4.166033908197224
0.005200000000000001 6365.914559156209 1.000281191992355 1.556233486285341 285.4553654846403 4.149590529381294
0.0053 6365.923862234617 1.000280888253444 1.556154208501178 285.3948954749925 4.133115044602429
0.0054 6365.933215805164 1.000280583237013 1.55607490586304 285.3340972664349 4.116608192116527
0.005500000000000001 6365.942619884016 1.00028027694796 1.555995578271561 285.2729707538928 4.100070710344181
0.0056 6365.952074487405 1.000279969391197 1.555916225627905 285.2115158318655 4.083503337820917
0.0057 6365.961579631626 1.000279660571653 1.555836847833882 285.149732394433 4.06690681314903
0.0058 6365.971135333039 1.000279350494268 1.555757444791908 285.0876203352435 4.050281874944677
0.0059 6365.980741608069 1.000279039163997 1.555678016404968 285.0251795475491 4.033629261797656
0.006 6365.990398473205 1.000278726585811 1.55559856257668 284.9624099241704 4.016949712212188
0.0061 6366.000105944998 1.000278412764692 1.555519083211282 284.8993113575142 4.00024396456201
0.006200000000000001 6366.009864040061 1.000278097705637 1.555439578213512 284.835883739603 3.983512757048502
0.0063 6366.019672775075 1.000277781413657 1.55536004748882 284.77212696201 3.966756827633891
0.0064 6366.029532166777 1.000277463893773 1.555280490943225 284.7080409159479 3.949976914015039
0.006500000000000001 6366.039442231971 1.000277145151024 1.555200908483346 284.6436254921858 3.933173753552128
0.0066 6366.04940298752 1.000276825190457 1.555121300016381 284.5788805811206 3.916348083237757
0.0067 6366.059414450347 1.000276504017136 1.555041665450203 284.5138060727471 3.899500639639712
0.0068 6366.069476637437 1.000276181636135 1.55496200469322 284.4484018566581 3.88263215885158
0.006900000000000001 6366.079589565837 1.00027585805254 1.554882317654463 284.382667822062 3.865743376447982
0.007 6366.089753252652 1.000275533271452 1.554802604243608 284.3166038577596 3.848835027429196
0.0071 6366.099967715048 1.000275207297982 1.554722864370879 284.2502098521849 3.831907846182549
0.007200000000000001 6366.110232970249 1.000274880137253 1.554643097947139 284.1834856933818 3.814962566427157
0.0073 6366.120549035538 1.000274551794401 1.554563304883895 284.1164312690042 3.79799992116486
0.0074 6366.130915928256 1.000274222274572 1.554483485093189 284.0490464663334 3.781020642635704
0.007500000000000001 6366.141333665805 1.000273891582924 1.554403638487678 283.9813311722663 3.76402546226601
0.0076 6366.151802265641 1.000273559724628 1.554323764980701 283.9132852733336 3.747015110623977
0.0077 6366.162321745281 1.000273226704862 1.554243864486189 283.8449086556756 3.729990317365003
0.007800000000000001 6366.172892122295 1.000272892528819 1.554163936918591 283.7762012050838 3.712951811193341
0.007900000000000001 6366.183513414311 1.000272557201703 1.554083982193054 283.7071628069774 3.695900319807586
0.008 6366.194185639015 1.000272220728724 1.554004000225336 283.6377933464031 3.678836569852232
0.0081 6366.204908814147 1.000271883115107 1.553923990931763 283.5680927080469 3.661761286872218
0.008200000000000001 6366.215682957503 1.000271544366084 1.553843954229295 283.4980607762285 3.644675195263221
0.0083 6366.226508086935 1.000271204486901 1.553763890035538 283.4276974349244 3.627579018229272
0.008400000000000001 6366.237384220346 1.00027086348281 1.553683798268633 283.3570025677508 3.610473477730361
0.008500000000000001 6366.248311375698 1.000270521359075 1.55360367884738 283.285976057963 3.593359294434558
0.0086 6366.259289571003 1.000270178120968 1.553523531691227 283.2146177884796 3.57623718767592
0.008700000000000001 6366.270318824329 1.000269833773773 1.553443356720169 283.1429276418584 3.559107875401129
0.008800000000000001 6366.281399153795 1.00026948832278 1.553363153854859 283.0709055003321 3.541972074130453
0.0089 6366.292530577575 1.000269141773291 1.553282923016552 282.998551245761 3.524830498899073
0.009000000000000001 6366.303713113894 1.000268794130615 1.553202664127114 282.9258647596861 3.50768386322251
0.0091 6366.31494678103 1.000268445400071 1.553122377108983 282.8528459233056 3.490532879043871
0.0092 6366.32623159731 1.000268095586985 1.553042061885344 282.7794946174866 3.473378256689684
0.009300000000000001 6366.337567581114 1.000267744696694 1.552961718379873 282.7058107227593 3.456220704821702
0.0094 6366.348954750873 1.00026739273454 1.552881346516881 282.6317941193287 3.439060930393011
0.0095 6366.360393125067 1.000267039705875 1.552800946221334 282.5574446870627 3.421899638598811
0.009600000000000001 6366.371882722228 1.000266685616059 1.552720517418819 282.4827623055161 3.404737532835557
0.0097 6366.383423560937 1.00026633047046 1.55264006003547 282.4077468539125 3.387575314650714
0.0098 6366.395015659821 1.000265974274452 1.552559573998138 282.3323982111623 3.370413683700853
0.009900000000000001 6366.406659037561 1.000265617033418 1.5524790592342 282.2567162558565 3.353253337704483
0.01 6366.418353712882 1.000265258752746 1.552398515671715 282.1807008662671 3.336094972396453
0.0101 6366.43009970456 1.000264899437834 1.552317943239324 282.1043519203585 3.318939281485189
0.0102 6366.441897031418 1.000264539094086 1.552237341866277 282.0276692957817 3.301786956606117
0.0103 6366.453745712326 1.00026417772691 1.552156711482525 281.9506528698806 3.284638687277951
0.0104 6366.465645766199 1.000263815341725 1.552076052018513 281.8733025197033 3.267495160860457
0.0105 6366.477597212001 1.000263451943953 1.551995363405369 281.7956181219905 3.250357062507165
0.0106 6366.489600068743 1.000263087539023 1.551914645574875 281.7175995531696 3.233225075119661
0.0107 6366.501654355478 1.000262722132371 1.551833898459358 281.6392466893961 3.216099879312453
0.0108 6366.513760091306 1.000262355729438 1.551753121991828 281.5605594065122 3.198982153359847
0.0109 6366.525917295373 1.000261988335671 1.551672316105851 281.4815375800762 3.181872573158633
0.011 6366.538125986869 1.000261619956522 1.551591480735677 281.4021810853509 3.164771812181925
0.0111 6366.550386185027 1.00026125059745 1.551510615816112 281.3224897973213 3.147680541439642
0.0112 6366.562697909126 1.000260880263917 1.551429721282626 281.2424635906826 3.130599429432826
0.0113 6366.575061178485 1.000260508961391 1.551348797071304 281.1621023398465 3.113529142112036
0.0114 6366.587476012469 1.000260136695345 1.551267843118823 281.0814059189523 3.096470342837208
0.0115 6366.599942430484 1.000259763471256 1.551186859362503 281.0003742018561 3.07942369233273
0.0116 6366.612460451979 1.000259389294608 1.551105845740288 280.9190070621356 3.062389848646555
0.0117 6366.625030096445 1.000259014170885 1.551024802190684 280.8373043731089 3.045369467111996
0.0118 6366.637651383413 1.00025863810558 1.550943728652905 280.7552660078157 3.028363200302345
0.0119 6366.650324332456 1.000258261104185 1.550862625066698 280.6728918390362 3.011371697993167
0.012 6366.663048963188 1.000257883172201 1.550781491372521 280.5901817392781 2.994395607118715
0.0121 6366.675825295262 1.000257504315128 1.550700327511321 280.5071355807953 2.977435571734702
0.0122 6366.688653348373 1.000257124538473 1.5506191334248 280.4237532355754 2.960492232975277
0.0123 6366.701533142254 1.000256743847745 1.550537909055162 280.340034575352 2.943566229015104
0.0124 6366.714464696675 1.000256362248455 1.550456654345333 280.2559794716102 2.926658195030491
0.0125 6366.727448031449 1.00025597974612 1.550375369238774 280.1715877955811 2.909768763158406
0.0126 6366.740483166423 1.000255596346256 1.550294053679601 280.0868594182474 2.892898562458175
0.0127 6366.753570121486 1.000255212054386 1.550212707612542 280.0017942103435 2.876048218872281
0.0128 6366.766708916562 1.000254826876031 1.550131330982923 279.9163920423497 2.859218355186303
0.0129 6366.779899571612 1.000254440816717 1.55004992373672 279.8306527845215 2.84240959099613
0.013 6366.793142106635 1.000254053881972 1.549968485820489 279.7445763068721 2.825622542666117
0.0131 6366.806436541666 1.000253666077327 1.549887017181413 279.6581624791723 2.80885782329109
0.0132 6366.819782896774 1.000253277408312 1.549805517767308 279.5714111709684 2.79211604266208
0.0133 6366.833181192067 1.000252887880461 1.549723987526595 279.4843222515641 2.775397807225493
0.0134 6366.846631447686 1.000252497499309 1.549642426408292 279.3968955900385 2.758703720049455
0.0135 6366.860133683808 1.000252106270391 1.549560834362039 279.3091310552462 2.742034380787032
0.0136 6366.873687920643 1.000251714199246 1.549479211338107 279.2210285158229 2.725390385640885
0.0137 6366.887294178434 1.000251321291411 1.54939755728735 279.1325878401798 2.708772327326022
0.0138 6366.900952477461 1.000250927552427 1.549315872161267 279.0438088965033 2.69218079503402
0.0139 6366.914662838036 1.000250532987832 1.549234155911915 278.954691552767 2.675616374399787
0.014 6366.928425280503 1.000250137603167 1.549152408492052 278.8652356767319 2.65907964746642
0.0141 6366.942239825238 1.000249741403975 1.549070629854929 278.7754411359518 2.642571192651491
0.0142 6366.956106492651 1.000249344395795 1.548988819954507 278.6853077977679 2.626091584711508
0.0143 6366.970025303183 1.000248946584168 1.548906978745302 278.5948355293084 2.609641394707826
0.0144 6366.983996277307 1.000248547974637 1.548825106182476 278.5040241975065 2.593221189976133
0.0145 6366.998019435523 1.000248148572741 1.548743202221751 278.4128736691003 2.576831534092999
0.0146 6367.012094798367 1.000247748384022 1.548661266819499 278.3213838106152 2.560472986839637
0.0147 6367.026222386402 1.000247347414019 1.548579299932664 278.2295544883872 2.544146104173483
0.0148 6367.040402220222 1.000246945668272 1.548497301518816 278.1373855685573 2.527851438194783
0.0149 6367.054634320449 1.000246543152319 1.548415271536137 278.0448769170833 2.511589537116719
0.015 6367.068918707736 1.000246139871697 1.548333209943394 277.9520283997161 2.495360945229642
0.0151 6367.083255402764 1.000245735831942 1.548251116699952 277.8588398820351 2.4791662028761
0.0152 6367.097644426241 1.000245331038589 1.548168991765824 277.7653112294305 2.463005846416846
0.0153 6367.112085798904 1.000244925497171 1.548086835101546 277.6714423071211 2.446880408203438
0.0154 6367.126579541519 1.00024451921322 1.548004646668329 277.5772329801247 2.430790416543063
0.0155 6367.141125674876 1.000244112192266 1.547922426427945 277.4826831133054 2.414736395676945
0.0156 6367.155724219793 1.000243704439836 1.547840174342783 277.387792571344 2.398718865745936
0.0157 6367.170375197115 1.000243295961457 1.547757890375803 277.2925612187499 2.382738342763609
0.0158 6367.185078627714 1.000242886762651 1.547675574490581 277.1969889198612 2.366795338587715
0.0159 6367.199834532484 1.00024247684894 1.547593226651317 277.101075538856 2.350890360894009
0.016 6367.214642932348 1.000242066225842 1.547510846822732 277.0048209397354 2.335023913145552
0.0161 6367.229503848253 1.000241654898872 1.547428434970209 276.9082249863585 2.319196494571225
0.0162 6367.244417301169 1.000241242873545 1.547345991059693 276.8112875424011 2.303408600131968
0.0163 6367.259383312092 1.000240830155369 1.547263515057701 276.7140084714032 2.287660720502
0.0164 6367.27440190204 1.000240416749852 1.547181006931408 276.616387636739 2.271953342037846
0.0165 6367.289473092055 1.000240002662496 1.547098466648514 276.518424901641 2.256286946756448
0.0166 6367.304596903204 1.000239587898802 1.54701589417732 276.4201201291761 2.240662012306066
0.0167 6367.319773356573 1.000239172464265 1.546933289486731 276.3214731822753 2.225079011946135
0.0168 6367.335002473274 1.00023875636438 1.54685065254623 276.2224839237218 2.209538414520888
0.0169 6367.350284274437 1.000238339604633 1.546767983325891 276.1231522161569 2.19404068443626
0.017 6367.365618781218 1.000237922190511 1.546685281796331 276.0234779220799 2.178586281636262
0.0171 6367.381006014791 1.000237504127494 1.546602547928801 275.9234609038602 2.163175661581622
0.0172 6367.39644599635 1.000237085421057 1.546519781695118 275.8231010237254 2.147809275225184
0.0173 6367.411938747113 1.000236666076672 1.546436983067671 275.7223981437668 2.132487568990511
0.0174 6367.427484288316 1.000236246099807 1.546354152019422 275.6213521259459 2.117210984750897
0.0175 6367.443082641214 1.000235825495924 1.54627128852391 275.519962832106 2.101979959809685
0.0176 6367.458733827084 1.000235404270481 1.546188392555256 275.4182301239542 2.086794926876557
0.0177 6367.474437867219 1.00023498242893 1.546105464088171 275.3161538630796 2.071656314049635
0.0178 6367.49019478293 1.000234559976718 1.5460225030979 275.213733910953 2.056564544795322
0.0179 6367.506004595552 1.000234136919288 1.545939509560291 275.110970128915 2.041520037926878
0.018 6367.52186732643 1.000233713262076 1.545856483451751 275.0078623782059 2.026523207589518
0.0181 6367.537782996933 1.000233289010514 1.545773424749246 274.9044105199358 2.01157446323729
0.0182 6367.553751628445 1.000232864170027 1.545690333430298 274.8006144151085 1.996674209618197
0.0183 6367.569773242366 1.000232438746034 1.545607209473065 274.6964739246213 1.981822846756288
0.0184 6367.585847860113 1.000232012743949 1.545524052856159 274.5919889092651 1.967020769934211
0.0185 6367.601975503119 1.000231586169181 1.545440863558845 274.4871592297244 1.95226836967624
0.0186 6367.618156192833 1.000231159027129 1.545357641560888 274.3819847465833 1.937566031732591
0.0187 6367.63438995072 1.00023073132319 1.545274386842641 274.2764653203193 1.922914137062542
0.0188 6367.650676798259 1.000230303062752 1.545191099385023 274.1706008113155 1.9083130618205
0.0189 6367.667016756945 1.000229874251197 1.545107779169469 274.0643910798602 1.893763177340851
0.019 6367.683409848285 1.000229444893901 1.545024426178 273.9578359861474 1.879264850123304
0.0191 6367.699856093802 1.000229014996231 1.5449410403932 273.8509353902881 1.864818441820286
0.0192 6367.716355515033 1.00022858456355 1.544857621798138 273.7436891522869 1.850424309220022
0.0193 6367.732908133527 1.000228153601211 1.544774170376515 273.6360971320777 1.836082804238069
0.0194 6367.749513970845 1.000227722114563 1.544690686112513 273.5281591895053 1.821794273902124
0.0195 6367.766173048565 1.000227290108945 1.544607168990894 273.4198751843263 1.807559060339726
0.0196 6367.782885388274 1.00022685758969 1.544523618996928 273.3112449762201 1.793377500767998
0.0197 6367.79965101157 1.000226424562121 1.544440036116497 273.2022684247953 1.779249927483023
0.0198 6367.816469940065 1.000225991031558 1.544356420335925 273.0929453895777 1.765176667847425
0.0199 6367.83334219538 1.000225557003309 1.544272771642149 272.9832757300281 1.751158044282243
0.02 6367.850267799149 1.000225122482675 1.544189090022596 272.8732593055305 1.737194374255476
0.0201 6367.867246773017 1.000224687474951 1.544105375465258 272.7628959753919 1.723285970272658
0.0202 6367.884279138635 1.000224251985422 1.544021627958631 272.6521855988721 1.709433139871612
0.0203 6367.90136491767 1.000223816019364 1.543937847491758 272.5411280351481 1.695636185609489
