#theta R n z T P_w
0 6365.5 1.000332683895494 1.560324351282931 288.15 13.30034812162062
0.0001 6365.506698014227 1.000332359064596 1.560255110332419 288.1064629075221 13.26310630979066
0.0002 6365.513440115835 1.000332032504903 1.560185831524628 288.0626392470739 13.22571189648976
0.0003 6365.520226329128 1.000331704222698 1.560116514653704 288.0185288606707 13.18816637112744
0.0004 6365.527056678544 1.000331374224291 1.560047159514957 287.9741315894647 13.15047122823431
0.0005 6365.533931188655 1.000331042516023 1.559977765904656 287.929447273745 13.11262796738149
0.0006000000000000001 6365.540849884161 1.000330709104263 1.559908333620192 287.8844757529554 13.0746380931146
0.0007 6365.547812789893 1.00033037399541 1.559838862459904 287.8392168656941 13.03650311487227
0.0008 6365.554819930816 1.00033003719589 1.559769352223371 287.7936704496964 12.99822454688948
0.0009000000000000001 6365.561871332017 1.00032969871216 1.559699802711032 287.7478363418876 12.95980390816015
0.001 6365.568967018718 1.000329358550702 1.559630213724527 287.7017143783299 12.92124272230988
0.0011 6365.576107016267 1.000329016718031 1.559560585066438 287.6553043942639 12.88254251754782
0.0012 6365.583291350137 1.000328673220684 1.559490916540556 287.6086062241083 12.84370482658337
0.0013 6365.59052004593 1.00032832806523 1.559421207951599 287.5616197014541 12.80473118653759
0.0014 6365.597793129373 1.000327981258265 1.559351459105392 287.5143446590768 12.7656231388691
0.0015 6365.605110626319 1.000327632806411 1.559281669808846 287.4667809289239 12.72638222927998
0.0016 6365.612472562745 1.000327282716318 1.559211839869916 287.4189283421568 12.68701000766531
0.0017 6365.619878964751 1.000326930994663 1.559141969097627 287.3707867291213 12.6475080280037
0.0018 6365.62732985856 1.000326577648149 1.559072057302087 287.3223559193588 12.60787784828171
0.0019 6365.634825270521 1.000326222683506 1.559002104294479 287.2736357416128 12.56812103041305
0.002 6365.642365227101 1.000325866107491 1.55893210988699 287.2246260238406 12.52823914016223
0.0021 6365.64994975489 1.000325507926885 1.558862073892993 287.1753265932133 12.48823374705814
0.0022 6365.657578880598 1.000325148148498 1.558791996126832 287.1257372761155 12.44810642430741
0.0023 6365.665252631054 1.000324786779163 1.558721876404042 287.0758578981516 12.40785874871221
0.0024 6365.672971033207 1.00032442382574 1.558651714541109 287.0256882841576 12.3674923005925
0.0025 6365.680734114124 1.000324059295113 1.558581510355674 286.9752282581948 12.32700866369365
0.0026 6365.688541900991 1.000323693194193 1.558511263666486 286.9244776435561 12.28640942510326
0.0027 6365.69639442111 1.000323325529913 1.558440974293288 286.8734362627837 12.24569617517715
0.0028 6365.7042917019 1.000322956309232 1.558370642057016 286.8221039376511 12.20487050743666
0.0029 6365.712233770895 1.000322585539135 1.558300266779596 286.7704804891813 12.16393401849397
0.003 6365.720220655744 1.000322213226628 1.558229848284151 286.7185657376639 12.12288830797709
0.0031 6365.72825238421 1.000321839378744 1.5581593863948 286.666359502632 12.08173497842161
0.0032 6365.736328984172 1.000321464002537 1.55808888093678 286.6138616028796 12.04047563519517
0.0033 6365.744450483618 1.000321087105086 1.55801833173649 286.5610718564798 11.99911188642138
0.0034 6365.752616910652 1.000320708693493 1.557947738621386 286.5079900807604 11.95764534287106
0.0035 6365.760828293488 1.000320328774882 1.55787710142001 286.4546160923281 11.91607761789027
0.0036 6365.76908466045 1.000319947356402 1.557806419961985 286.4009497070746 11.87441032731415
0.0037 6365.777386039973 1.000319564445223 1.557735694078117 286.3469907401758 11.83264508937586
0.0038 6365.785732460602 1.000319180048536 1.55766492360031 286.2927390060867 11.79078352461078
0.0039 6365.79412395099 1.000318794173558 1.557594108361458 286.2381943185645 11.74882725578326
0.004 6365.802560539898 1.000318406827523 1.557523248195729 286.1833564906632 11.70677790779025
0.0041 6365.811042256195 1.00031801801769 1.557452342938329 286.128225334733 11.66463710756938
0.004200000000000001 6365.819569128856 1.000317627751338 1.557381392425581 286.0728006624385 11.62240648402025
0.0043 6365.828141186961 1.000317236035768 1.557310396494933 286.0170822847525 11.58008766790747
0.0044 6365.836758459698 1.000316842878301 1.557239354984925 285.9610700119623 11.53768229177246
0.004500000000000001 6365.845420976359 1.000316448286278 1.557168267735316 285.9047636536692 11.49519198984061
0.0046 6365.854128766336 1.000316052267063 1.557097134586899 285.8481630188184 11.45261839795048
0.0047 6365.862881859128 1.000315654828037 1.557025955381637 285.7912679156692 11.40996315343812
0.0048 6365.871680284336 1.000315255976602 1.556954729962584 285.7340781518191 11.36722789506143
0.0049 6365.880524071661 1.000314855720182 1.556883458173993 285.6765935342031 11.32441426290637
0.005 6365.889413250906 1.000314454066216 1.556812139861196 285.6188138691122 11.28152389830631
0.0051 6365.898347851975 1.000314051022166 1.556740774870661 285.5607389621631 11.23855844372587
0.005200000000000001 6365.90732790487 1.000313646595511 1.556669363050058 285.5023686183462 11.19551954270187
0.0053 6365.916353439691 1.000313240793748 1.556597904248178 285.4437026420072 11.15240883973555
0.0054 6365.92542448664 1.000312833624395 1.556526398314858 285.3847408368418 11.1092279801937
0.005500000000000001 6365.934541076012 1.000312425094985 1.556454845101225 285.325483005919 11.06597861023132
0.0056 6365.943703238203 1.000312015213071 1.556383244459469 285.2659289516808 11.02266237669656
0.0057 6365.9529110037 1.000311603986223 1.556311596242954 285.2060784759491 10.97928092703999
0.0058 6365.962164403088 1.000311191422028 1.556239900306215 285.1459313799304 10.93583590922352
0.0059 6365.971463467046 1.00031077752809 1.556168156504917 285.085487464199 10.89232897161232
0.006 6365.980808226347 1.000310362312031 1.556096364695886 285.0247465287438 10.8487617629134
0.0061 6365.990198711856 1.000309945781489 1.556024524737093 284.963708372933 10.80513593205436
0.006200000000000001 6365.999634954534 1.000309527944116 1.555952636487715 284.9023727955317 10.76145312810051
0.0063 6366.009116985427 1.000309108807585 1.555880699808036 284.840739594726 10.71771500017577
0.0064 6366.018644835676 1.00030868837958 1.555808714559572 284.7788085681044 10.67392319735401
0.006500000000000001 6366.028218536513 1.000308266667802 1.55573668060496 284.7165795126647 10.63007936856717
0.0066 6366.037838119256 1.000307843679969 1.55566459780804 284.6540522248368 10.58618516252582
0.0067 6366.047503615314 1.000307419423811 1.55559246603378 284.5912265004598 10.54224222760616
0.0068 6366.057215056183 1.000306993907075 1.555520285148349 284.5281021348109 10.49825221177446
0.006900000000000001 6366.066972473446 1.000306567137522 1.555448055019099 284.4646789225998 10.45421676248642
0.007 6366.076775898772 1.000306139122927 1.555375775514555 284.4009566579806 10.41013752659884
0.0071 6366.086625363916 1.000305709871077 1.555303446504446 284.3369351345458 10.36601615026895
0.007200000000000001 6366.096520900719 1.000305279389776 1.555231067859584 284.2726141453262 10.32185427885782
0.0073 6366.106462541105 1.000304847686838 1.555158639452128 284.2079934828147 10.27765355685001
0.0074 6366.116450317081 1.000304414770093 1.555086161155249 284.1430729389721 10.23341562776071
0.007500000000000001 6366.126484260737 1.000303980647382 1.555013632843451 284.0778523052094 10.18914213402688
0.0076 6366.136564404244 1.000303545326559 1.554941054392332 284.0123313724115 10.14483471692655
0.0077 6366.146690779857 1.00030310881549 1.55486842567874 283.9465099309313 10.10049501647799
0.007800000000000001 6366.156863419907 1.000302671122052 1.554795746580716 283.8803877706013 10.05612467135084
0.007900000000000001 6366.167082356809 1.000302232254136 1.554723016977444 283.8139646807398 10.01172531877318
0.008 6366.177347623054 1.000301792219642 1.554650236749337 283.7472404501508 9.967298594434633
0.0081 6366.187659251211 1.000301351026483 1.554577405778 283.6802148671298 9.922846132393486
0.008200000000000001 6366.198017273928 1.000300908682581 1.554504523946263 283.61288771947 9.878369564983711
0.0083 6366.208421723929 1.000300465195871 1.554431591138149 283.5452587944618 9.833870522718177
0.008400000000000001 6366.218872634014 1.000300020574295 1.554358607238846 283.4773278789111 9.789350634203496
0.008500000000000001 6366.229370037056 1.000299574825807 1.554285572134796 283.4090947591329 9.744811526039289
0.0086 6366.239913966005 1.00029912795837 1.554212485713633 283.3405592209696 9.700254822733021
0.008700000000000001 6366.250504453883 1.000298679979958 1.554139347864197 283.2717210497607 9.655682146584056
0.008800000000000001 6366.261141533785 1.000298230898551 1.554066158476535 283.2025800303967 9.611095117621591
0.0089 6366.27182523888 1.00029778072214 1.553992917441908 283.1331359472832 9.566495353485047
0.009000000000000001 6366.282555602404 1.000297329458725 1.553919624652782 283.0633885843766 9.521884469350402
0.0091 6366.293332657667 1.000296877116311 1.55384628000285 282.9933377251663 9.477264077822298
0.0092 6366.304156438047 1.000296423702915 1.553772883387047 282.9229831526922 9.432635788849048
0.009300000000000001 6366.315026976993 1.000295969226558 1.553699434701458 282.852324649545 9.388001209626294
0.0094 6366.32594430802 1.000295513695272 1.553625933843449 282.7813619978723 9.343361944504588
0.0095 6366.33690846471 1.000295057117092 1.553552380711585 282.7100949793838 9.298719594897001
0.009600000000000001 6366.347919480713 1.000294599500063 1.553478775205621 282.6385233753639 9.254075759190531
0.0097 6366.358977389746 1.000294140852235 1.553405117226593 282.5666469666534 9.209432032639176
0.0098 6366.370082225588 1.000293681181665 1.5533314066767 282.4944655336793 9.16479000728666
0.009900000000000001 6366.381234022084 1.000293220496413 1.553257643459451 282.421978856455 9.120151271870737
0.01 6366.392432813143 1.000292758804549 1.553183827479463 282.349186714568 9.075517411720467
0.0101 6366.403678632737 1.000292296114144 1.553109958642666 282.2760888872098 9.03089000867911
0.0102 6366.414971514899 1.000291832433278 1.553036036856229 282.2026851531581 8.986270640998073
0.0103 6366.426311493721 1.000291367770032 1.552962062028462 282.1289752908123 8.941660883263527
0.0104 6366.437698603359 1.000290902132493 1.552888034069006 282.0549590781637 8.897062306283566
0.0105 6366.44913287803 1.000290435528753 1.552813952888654 281.9806362928078 8.852476477000897
0.0106 6366.460614352003 1.000289967966906 1.552739818399485 281.9060067119793 8.807904958419657
0.0107 6366.472143059613 1.00028949945505 1.552665630514777 281.8310701125168 8.763349309489849
0.0108 6366.483719035247 1.000289030001287 1.552591389149076 281.7558262708925 8.718811085031037
0.0109 6366.49534231335 1.00028855961372 1.552517094218116 281.6802749632237 8.674291835645404
0.011 6366.507012928424 1.000288088300456 1.552442745638903 281.6044159652437 8.629793107606694
0.0111 6366.518730915024 1.000287616069605 1.55236834332965 281.5282490523426 8.585316442791269
0.0112 6366.530496307761 1.000287142929276 1.552293887209844 281.4517739995503 8.540863378574487
0.0113 6366.542309141299 1.000286668887582 1.55221937720018 281.3749905815592 8.496435447751617
0.0114 6366.554169450352 1.000286193952638 1.552144813222586 281.2978985727135 8.45203417843827
0.0115 6366.566077269689 1.000285718132558 1.552070195200264 281.22049774702 8.407661093984887
0.0116 6366.57803263413 1.000285241435457 1.551995523057632 281.1427878781545 8.363317712888028
0.0117 6366.590035578543 1.000284763869452 1.551920796720287 281.0647687394679 8.319005548701885
0.0118 6366.602086137848 1.000284285442657 1.551846016115203 280.9864401039857 8.274726109946736
0.0119 6366.614184347013 1.00028380616319 1.551771181170469 280.9078017444143 8.230480900021066
0.012 6366.626330241053 1.000283326039165 1.551696291815473 280.8288534331526 8.186271417117293
0.0121 6366.638523855031 1.000282845078697 1.551621347980836 280.7495949422981 8.142099154134359
0.0122 6366.650765224055 1.000282363289899 1.551546349598384 280.6700260436409 8.097965598584102
0.0123 6366.663054383281 1.000281880680882 1.551471296601252 280.5901465086753 8.053872232507873
0.0124 6366.675391367907 1.000281397259758 1.551396188923763 280.5099561086062 8.009820532390119
0.0125 6366.687776213176 1.000280913034634 1.551321026501483 280.4294546143545 7.965811969072299
0.0126 6366.700208954377 1.000280428013616 1.551245809271242 280.3486417965518 7.921848007660699
0.0127 6366.712689626837 1.000279942204806 1.551170537171106 280.2675174255572 7.87793010744754
0.0128 6366.725218265928 1.000279455616306 1.551095210140365 280.1860812714702 7.834059721829068
0.0129 6366.737794907061 1.000278968256212 1.551019828119554 280.1043331041063 7.790238298204936
0.013 6366.750419585687 1.000278480132617 1.550944391050473 280.0222726930327 7.746467277909855
0.0131 6366.763092337299 1.00027799125361 1.550868898876121 279.9398998075566 7.702748096120123
0.0132 6366.775813197425 1.000277501627276 1.5507933515408 279.8572142167367 7.659082181773262
0.0133 6366.788582201633 1.000277011261697 1.550717748989968 279.7742156893836 7.615470957481737
0.0134 6366.801399385527 1.000276520164949 1.55064209117038 279.6909039940773 7.57191583945643
0.0135 6366.814264784746 1.0002760283451 1.550566378030044 279.6072788991495 7.528418237411916
0.0136 6366.827178434968 1.000275535810218 1.550490609518136 279.5233401727072 7.484979554493875
0.0137 6366.840140371903 1.000275042568361 1.550414785585163 279.4390875826329 7.441601187194513
0.0138 6366.853150631294 1.000274548627583 1.550338906182781 279.3545208965901 7.398284525271516
0.0139 6366.866209248918 1.000274053995931 1.550262971263934 279.2696398820298 7.35503095166744
0.014 6366.879316260587 1.000273558681446 1.550186980782788 279.184444306184 7.311841842423561
0.0141 6366.89247170214 1.000273062692161 1.550110934694752 279.0989339360898 7.268718566609251
0.0142 6366.90567560945 1.000272566036102 1.550034832956458 279.0131085385773 7.225662486233752
0.0143 6366.918928018416 1.000272068721287 1.549958675525806 278.9269678802933 7.182674956176392
0.0144 6366.932228964973 1.000271570755729 1.549882462361883 278.8405117276778 7.139757324093554
0.0145 6366.945578485076 1.000271072147429 1.549806193425015 278.7537398470052 7.09691093035864
0.0146 6366.958976614714 1.000270572904381 1.549729868676792 278.6666520043608 7.0541371079701
0.0147 6366.9724233899 1.000270073034571 1.549653488080016 278.5792479656524 7.011437182477725
0.0148 6366.985918846673 1.000269572545975 1.549577051598711 278.4915274966282 6.968812471912215
0.0149 6366.999463021098 1.00026907144656 1.549500559198139 278.4034903628652 6.926264286700835
0.015 6367.013055949265 1.000268569744282 1.549424010844792 278.3151363297806 6.883793929595211
0.0151 6367.026697667285 1.00026806744709 1.549347406506372 278.2264651626496 6.841402695602392
0.0152 6367.040388211295 1.000267564562919 1.549270746151824 278.137476626582 6.799091871896644
0.0153 6367.054127617454 1.000267061099696 1.549194029751318 278.0481704865518 6.756862737757348
0.0154 6367.067915921939 1.000266557065337 1.549117257276229 277.9585465073968 6.714716564493234
0.0155 6367.081753160953 1.000266052467745 1.549040428699141 277.8686044538071 6.672654615361753
0.0156 6367.095639370713 1.000265547314812 1.548963543993921 277.7783440903662 6.630678145513983
0.0157 6367.109574587459 1.00026504161442 1.548886603135575 277.6877651815161 6.588788401904128
0.0158 6367.123558847448 1.000264535374437 1.548809606100386 277.5968674915861 6.546986623230062
0.0159 6367.137592186955 1.00026402860272 1.54873255286581 277.5056507847934 6.505274039860649
0.016 6367.15167464227 1.000263521307112 1.548655443410537 277.4141148252428 6.463651873763741
0.0161 6367.165806249703 1.000263013495443 1.548578277714457 277.3222593769327 6.422121338437575
0.0162 6367.179987045574 1.000262505175531 1.548501055758692 277.230084203767 6.380683638845421
0.0163 6367.194217066221 1.000261996355179 1.548423777525542 277.1375890695607 6.339339971348159
0.0164 6367.208496347995 1.000261487042178 1.548346442998545 277.0447737380345 6.298091523632238
0.0165 6367.222824927258 1.000260977244302 1.548269052162412 276.9516379728201 6.256939474643701
0.0166 6367.237202840388 1.000260466969313 1.54819160500306 276.8581815374786 6.215884994528014
0.0167 6367.251630123771 1.000259956224958 1.548114101507656 276.7644041954881 6.174929244557538
0.0168 6367.266106813804 1.000259445018967 1.548036541664456 276.6703057102735 6.134073377077846
0.0169 6367.280632946897 1.000258933359058 1.547958925463029 276.5758858451712 6.093318535426366
0.017 6367.295208559464 1.000258421252929 1.547881252894081 276.481144363482 6.0526658538903
0.0171 6367.309833687933 1.000257908708266 1.547803523949503 276.3860810284358 6.012116457626789
0.0172 6367.324508368735 1.000257395732737 1.547725738622403 276.290695603221 5.971671462611913
0.0173 6367.339232638311 1.000256882333994 1.547647896907046 276.1949878509789 5.931331975575142
0.0174 6367.354006533106 1.000256368519671 1.547569998798899 276.0989575348093 5.891099093939602
0.0175 6367.368830089572 1.000255854297388 1.547492044294614 276.0026044177824 5.850973905765549
0.0176 6367.383703344163 1.000255339674744 1.547414033392004 275.905928262939 5.810957489689597
0.0177 6367.398626333342 1.000254824659323 1.547335966090067 275.8089288332784 5.771050914859919
0.0178 6367.413599093569 1.000254309258689 1.547257842389 275.7116058917999 5.731255240894169
0.0179 6367.428621661311 1.000253793480391 1.547179662290106 275.6139592014791 5.691571517811266
0.018 6367.443694073033 1.000253277331957 1.547101425795932 275.5159885252859 5.652000785981063
0.0181 6367.458816365205 1.000252760820895 1.547023132910162 275.4176936261664 5.612544076060394
0.0182 6367.473988574295 1.000252243954699 1.546944783637609 275.3190742670844 5.573202408953789
0.0183 6367.489210736769 1.000251726740838 1.546866377984302 275.2201302110037 5.533976795751057
0.0184 6367.504482889093 1.000251209186766 1.546787915957373 275.1208612208942 5.49486823767531
0.0185 6367.519805067733 1.000250691299915 1.546709397565167 275.0212670597374 5.455877726031789
0.0186 6367.535177309149 1.000250173087696 1.546630822817112 274.9213474905326 5.417006242157489
0.0187 6367.5505996498 1.000249654557503 1.54655219172385 274.8211022763029 5.378254757371599
0.0188 6367.566072126139 1.000249135716706 1.546473504297107 274.7205311800948 5.339624232924495
0.0189 6367.581594774615 1.000248616572656 1.546394760549795 274.6196339650022 5.301115619956649
0.019 6367.597167631671 1.000248097132681 1.54631596049597 274.5184103941368 5.262729859437983
0.0191 6367.612790733745 1.000247577404092 1.546237104150744 274.4168602306576 5.22446788213081
0.0192 6367.628464117265 1.000247057394174 1.546158191530465 274.3149832377766 5.186330608544416
0.0193 6367.644187818654 1.000246537110191 1.546079222652533 274.2127791787474 5.14831894888395
0.0194 6367.659961874326 1.000246016559385 1.546000197535506 274.1102478168826 5.110433803011299
0.0195 6367.675786320684 1.000245495748978 1.545921116199066 274.0073889155541 5.072676060400173
0.0196 6367.691661194123 1.000244974686165 1.545841978663987 273.9042022381985 5.03504660009429
0.0197 6367.707586531026 1.000244453378122 1.545762784952188 273.8006875483296 4.997546290668573
0.0198 6367.723562367766 1.000243931832 1.545683535086666 273.6968446095201 4.960175990180546
0.0199 6367.739588740703 1.000243410054926 1.545604229091551 273.5926731854314 4.922936546139805
0.02 6367.755665686184 1.000242888054006 1.545524866992043 273.4881730398018 4.885828795463393
0.0201 6367.771793240545 1.000242365836318 1.545445448814466 273.3833439364583 4.848853564440651
0.0202 6367.787971440103 1.000241843408921 1.545365974586232 273.2781856393284 4.812011668698879
0.0203 6367.804200321166 1.000241320778845 1.545286444335856 273.1726979124222 4.775303913159585
