#theta R n z T P_w
0 6365.5 1.000343419280947 1.560324351282931 288.15 15.68759009216791
0.0001 6365.506698014227 1.000343067632993 1.560257653361014 288.1064629075221 15.6436638525736
0.0002 6365.513438496884 1.000342714222379 1.560190912137325 288.0626497702527 15.59956819940718
0.0003 6365.520221475733 1.000342359055807 1.560124127390778 288.0185604077368 15.55530478775245
0.0004 6365.527046978678 1.000342002140008 1.560057298901358 287.974194638591 15.51087527822282
0.0005 6365.533915033765 1.000341643481745 1.559990426450313 287.9295522805277 15.46628133690184
0.0006000000000000001 6365.540825669181 1.000341283087808 1.559923509819901 287.8846331503249 15.42152463522992
0.0007 6365.547778913251 1.00034092096502 1.559856548793558 287.8394370638683 15.37660684996172
0.0008 6365.554774794441 1.000340557120233 1.559789543155861 287.793963836133 15.33152966306391
0.0009000000000000001 6365.561813341355 1.000340191560327 1.559722492692476 287.7482132811896 15.2862947616362
0.001 6365.568894582738 1.000339824292214 1.559655397190287 287.7021852122042 15.24090383782612
0.0011 6365.576018547466 1.000339455322833 1.559588256437216 287.6558794414681 15.19535858877251
0.0012 6365.583185264558 1.000339084659153 1.559521070222364 287.6092957803738 15.14966071649598
0.0013 6365.590394763163 1.000338712308173 1.559453838336004 287.5624340394392 15.10381192783568
0.0014 6365.59764707257 1.000338338276918 1.559386560569498 287.515294028295 15.05781393435081
0.0015 6365.604942222199 1.000337962572443 1.559319236715391 287.4678755557032 15.01166845225058
0.0016 6365.612280241607 1.000337585201831 1.559251866567369 287.4201784295568 14.96537720230653
0.0017 6365.619661160478 1.000337206172194 1.559184449920253 287.3722024568914 14.91894190977577
0.0018 6365.627085008635 1.00033682549067 1.55911698657005 287.3239474438736 14.87236430430106
0.0019 6365.634551816027 1.000336443164426 1.559049476313868 287.2754131958249 14.82564611984474
0.002 6365.642061612738 1.000336059200656 1.558981918950013 287.2265995172032 14.77878909458235
0.0021 6365.649614428978 1.000335673606581 1.558914314277915 287.1775062116452 14.73179497085268
0.0022 6365.657210295089 1.00033528638945 1.558846662098215 287.1281330819241 14.68466549502799
0.0023 6365.664849241541 1.000334897556536 1.558778962212649 287.0784799299857 14.6374024174576
0.0024 6365.672531298931 1.000334507115142 1.558711214424198 287.0285465569481 14.59000749237703
0.0025 6365.680256497983 1.000334115072596 1.558643418536942 286.9783327631075 14.54248247782231
0.0026 6365.68802486955 1.000333721436252 1.558575574356166 286.9278383479267 14.49482913552731
0.0027 6365.695836444605 1.000333326213489 1.558507681688343 286.8770631100705 14.44704923086536
0.0028 6365.703691254251 1.000332929411713 1.558439740341078 286.82600684737 14.39914453272345
0.0029 6365.711589329712 1.000332531038356 1.55837175012319 286.77466935687 14.35111681345419
0.003 6365.719530702338 1.000332131100874 1.558303710844673 286.7230504348057 14.3029678487605
0.0031 6365.727515403598 1.000331729606748 1.558235622316679 286.6711498766139 14.25469941761343
0.0032 6365.735543465087 1.000331326563485 1.558167484351578 286.6189674769333 14.20631330215851
0.0033 6365.743614918518 1.000330921978615 1.558099296762929 286.5665030296344 14.15781128764915
0.0034 6365.751729795726 1.000330515859693 1.558031059365484 286.5137563277834 14.10919516231941
0.0035 6365.759888128662 1.0003301082143 1.557962771975168 286.4607271636959 14.06046671733852
0.0036 6365.768089949403 1.000329699050038 1.557894434409077 286.4074153288833 14.01162774666678
0.0037 6365.776335290137 1.000329288374535 1.55782604648559 286.3538206141124 13.96268004701471
0.0038 6365.784624183171 1.000328876195439 1.557757608024254 286.2999428093871 13.91362541773091
0.0039 6365.792956660931 1.000328462520426 1.557689118845791 286.2457817039489 13.86446566070624
0.004 6365.801332755957 1.000328047357191 1.557620578772171 286.1913370862766 13.81520258027755
0.0041 6365.809752500905 1.000327630713454 1.557551987626538 286.136608744116 13.76583798315797
0.004200000000000001 6365.818215928544 1.000327212596957 1.557483345233271 286.081596464462 13.71637367832393
0.0043 6365.826723071757 1.000326793015462 1.557414651417992 286.0263000335825 13.6668114769393
0.0044 6365.835273963539 1.000326371976757 1.557345906007437 285.9707192369946 13.61715319223674
0.004500000000000001 6365.843868637 1.000325949488649 1.557277108829731 285.9148538594999 13.56740063945177
0.0046 6365.852507125357 1.000325525558966 1.55720825971408 285.858703685179 13.51755563571937
0.0047 6365.86118946194 1.000325100195559 1.557139358491042 285.8022684973911 13.46761999997573
0.0048 6365.869915680186 1.000324673406301 1.55707040499227 285.745548078792 13.41759555287535
0.0049 6365.878685813645 1.000324245199082 1.55700139905074 285.6885422113104 13.36748411667141
0.005 6365.887499895971 1.000323815581815 1.556932340500653 285.6312506761891 13.31728751515312
0.0051 6365.896357960928 1.000323384562434 1.556863229177428 285.5736732539675 13.26700757353078
0.005200000000000001 6365.905260042386 1.00032295214889 1.556794064917763 285.5158097244934 13.21664611834655
0.0053 6365.914206174319 1.000322518349157 1.556724847559548 285.4576598669286 13.16620497737976
0.0054 6365.923196390808 1.000322083171227 1.556655576941938 285.3992234597494 13.11568597954685
0.005500000000000001 6365.932230726037 1.00032164662311 1.556586252905354 285.340500280758 13.06509095481133
0.0056 6365.941309214294 1.000321208712838 1.556516875291488 285.2814901070886 13.01442173408827
0.0057 6365.950431889969 1.000320769448458 1.556447443943219 285.2221927152017 12.96368014913851
0.0058 6365.959598787554 1.000320328838038 1.556377958704771 285.1626078809012 12.9128680324829
0.0059 6365.968809941641 1.000319886889664 1.556308419421569 285.1027353793351 12.86198721730107
0.006 6365.978065386924 1.000319443611439 1.556238825940316 285.042574984995 12.81103953733008
0.0061 6365.987365158195 1.000318999011484 1.556169178108968 284.9821264717342 12.76002682677787
0.006200000000000001 6365.996709290346 1.000318553097936 1.556099475776773 284.9213896127497 12.70895092020651
0.0063 6366.006097818365 1.000318105878952 1.556029718794264 284.8603641806297 12.65781365247008
0.0064 6366.015530777338 1.000317657362703 1.555959907013193 284.7990499473061 12.6066168585727
0.006500000000000001 6366.025008202446 1.000317207557379 1.55589004028661 284.7374466841019 12.55536237360591
0.0066 6366.034530128968 1.000316756471184 1.555820118468907 284.6755541617075 12.50405203262642
0.0067 6366.044096592274 1.000316304112339 1.55575014141565 284.6133721502164 12.45268767058289
0.0068 6366.053707627831 1.00031585048908 1.555680108983765 284.5509004190952 12.40127112218861
0.006900000000000001 6366.063363271197 1.00031539560966 1.555610021031463 284.4881387372196 12.34980422184789
0.007 6366.073063558022 1.000314939482347 1.555539877418194 284.4250868728562 12.29828880353827
0.0071 6366.082808524049 1.00031448211542 1.555469678004762 284.3617445936806 12.24672670072192
0.007200000000000001 6366.092598205109 1.000314023517179 1.555399422653195 284.2981116667946 12.19511974625658
0.0073 6366.102432637124 1.000313563695932 1.555329111226871 284.2341878586916 12.14346977226331
0.0074 6366.112311856107 1.000313102660006 1.55525874359045 284.169972935303 12.09177861006122
0.007500000000000001 6366.122235898155 1.000312640417739 1.555188319609886 284.1054666619929 12.04004809005887
0.0076 6366.132204799454 1.000312176977483 1.555117839152459 284.0406688035458 11.98828004164092
0.0077 6366.142218596278 1.000311712347603 1.555047302086701 283.9755791241909 11.93647629308323
0.007800000000000001 6366.152277324984 1.000311246536476 1.554976708282527 283.9101973876012 11.88463867144878
0.007900000000000001 6366.162381022015 1.000310779552495 1.554906057611109 283.8445233569004 11.83276900248821
0.008 6366.172529723898 1.00031031140406 1.554835349944942 283.778556794662 11.78086911053572
0.0081 6366.182723467242 1.000309842099588 1.554764585157834 283.7122974629277 11.72894081841872
0.008200000000000001 6366.192962288738 1.000309371647505 1.554693763124932 283.6457451232012 11.67698594734886
0.0083 6366.203246225162 1.000308900056248 1.554622883722672 283.5788995364481 11.62500631681773
0.008400000000000001 6366.213575313366 1.000308427334267 1.554551946828813 283.5117604631199 11.57300374451088
0.008500000000000001 6366.223949590285 1.00030795349002 1.554480952322477 283.4443276631476 11.5209800461987
0.0086 6366.23436909293 1.000307478531979 1.554409900084038 283.3766008959541 11.46893703564106
0.008700000000000001 6366.244833858393 1.000307002468624 1.554338789995268 283.3085799204476 11.41687652447823
0.008800000000000001 6366.255343923841 1.000306525308444 1.554267621939217 283.2402644950342 11.36480032213546
0.0089 6366.265899326519 1.000306047059941 1.55419639580028 283.1716543776291 11.31271023572745
0.009000000000000001 6366.276500103746 1.000305567731621 1.554125111464246 283.102749325651 11.26060806994927
0.0091 6366.287146292917 1.000305087332005 1.554053768818105 283.0335490960396 11.20849562698524
0.0092 6366.297837931501 1.000304605869617 1.553982367750309 282.9640534452441 11.15637470639549
0.009300000000000001 6366.308575057038 1.000304123352995 1.553910908150584 282.8942621292525 11.10424710503365
0.0094 6366.319357707142 1.000303639790679 1.553839389910004 282.8241749035741 11.05211461692905
0.0095 6366.330185919499 1.000303155191222 1.553767812921012 282.7537915232568 10.99997903319549
0.009600000000000001 6366.341059731863 1.000302669563181 1.553696177077341 282.6831117428877 10.94784214192689
0.0097 6366.351979182061 1.000302182915122 1.553624482274109 282.6121353166044 10.89570572810165
0.0098 6366.362944307984 1.000301695255616 1.553552728407796 282.5408619981071 10.84357157348693
0.009900000000000001 6366.373955147596 1.000301206593243 1.553480915376176 282.4692915406289 10.79144145651284
0.01 6366.385011738925 1.000300716936587 1.5534090430784 282.3974236969892 10.73931715220721
0.0101 6366.396114120065 1.000300226294238 1.553337111414987 282.3252582195759 10.68720043207841
0.0102 6366.407262329179 1.000299734674792 1.553265120287784 282.2527948603391 10.63509306400718
0.0103 6366.418456404489 1.000299242086852 1.553193069599989 282.1800333708214 10.58299681216408
0.0104 6366.429696384286 1.000298748539023 1.553120959256173 282.1069735021396 10.53091343689297
0.0105 6366.44098230692 1.000298254039916 1.553048789162248 282.0336150050201 10.47884469463264
0.0106 6366.452314210805 1.000297758598146 1.552976559225492 281.95995762977 10.42679233779224
0.0107 6366.463692134414 1.000297262222331 1.552904269354541 281.8860011263117 10.37475811467304
0.0108 6366.475116116284 1.000296764921096 1.552831919459353 281.8117452441542 10.32274376934433
0.0109 6366.486586195007 1.000296266703065 1.55275950945134 281.7371897324514 10.27075104158189
0.011 6366.498102409237 1.000295767576867 1.552687039243194 281.6623343399614 10.2187816667358
0.0111 6366.509664797683 1.000295267551134 1.55261450874896 281.5871788150579 10.16683737563624
0.0112 6366.521273399113 1.0002947666345 1.552541917884127 281.5117229057659 10.11491989451525
0.0113 6366.53292825235 1.0002942648356 1.552469266565472 281.435966359726 10.06303094487993
0.0114 6366.54462939627 1.000293762163072 1.552396554711184 281.3599089242419 10.01117224344264
0.0115 6366.556376869808 1.000293258625555 1.55232378224079 281.2835503462451 9.959345501994681
0.0116 6366.568170711948 1.000292754231689 1.552250949075191 281.2068903723356 9.907552427332764
0.0117 6366.580010961728 1.000292248990114 1.552178055136688 281.1299287487649 9.855794721145251
0.0118 6366.591897658239 1.000291742909472 1.552105100348916 281.0526652214475 9.80407407991887
0.0119 6366.60383084062 1.000291235998403 1.552032084636849 280.9750995359726 9.752392194845486
0.012 6366.61581054806 1.000290728265548 1.551959007926924 280.8972314376105 9.700750751725106
0.0121 6366.627836819801 1.000290219719547 1.551885870146853 280.8190606712941 9.649151430853523
0.0122 6366.639909695129 1.000289710369039 1.551812671225785 280.7405869816611 9.597595906949406
0.0123 6366.652029213379 1.000289200222662 1.551739411094215 280.6618101130356 9.546085849042397
0.0124 6366.664195413932 1.000288689289052 1.551666089684003 280.5827298094404 9.494622920381135
0.0125 6366.676408336215 1.000288177576844 1.551592706928388 280.5033458146025 9.443208778337574
0.0126 6366.688668019699 1.00028766509467 1.551519262762012 280.4236578719596 9.391845074311624
0.0127 6366.700974503899 1.000287151851158 1.551445757120837 280.3436657246592 9.340533453632263
0.0128 6366.713327828373 1.000286637854937 1.551372189942192 280.2633691155773 9.289275555470375
0.0129 6366.725728032721 1.000286123114628 1.551298561164906 280.1827677873119 9.238073012736683
0.013 6366.738175156585 1.000285607638851 1.551224870728996 280.101861482195 9.186927451991389
0.0131 6366.750669239647 1.000285091436222 1.551151118575983 280.0206499422924 9.135840493346635
0.0132 6366.763210321628 1.000284574515353 1.551077304648719 279.9391329094159 9.084813750376771
0.0133 6366.775798442287 1.000284056884851 1.551003428891434 279.8573101251349 9.033848830028866
0.0134 6366.788433641422 1.000283538553316 1.550929491249738 279.7751813307585 8.98294733251519
0.0135 6366.801115958867 1.000283019529346 1.550855491670602 279.6927462673656 8.932110851235588
0.0136 6366.813845434493 1.000282499821532 1.550781430102369 279.6100046757982 8.881340972678085
0.0137 6366.826622108205 1.000281979438458 1.550707306494772 279.5269562966681 8.830639276327281
0.0138 6366.839446019942 1.000281458388705 1.550633120798913 279.4436008703741 8.780007334580306
0.0139 6366.852317209678 1.000280936680843 1.550558872967254 279.3599381370904 8.729446712645155
0.014 6366.86523571742 1.000280414323439 1.550484562953635 279.2759678367723 8.678958968450361
0.0141 6366.878201583203 1.000279891325049 1.550410190713274 279.1916897091804 8.628545652565723
0.0142 6366.891214847096 1.000279367694225 1.550335756202758 279.107103493874 8.578208308105534
0.0143 6366.904275549198 1.000278843439509 1.550261259380025 279.0222089302114 8.527948470635996
0.0144 6366.917383729635 1.000278318569435 1.550186700204412 278.9370057573736 8.477767668097076
0.0145 6366.930539428563 1.000277793092529 1.550112078636629 278.8514937143408 8.427667420696846
0.0146 6366.943742686163 1.000277267017307 1.550037394638702 278.7656725399391 8.377649240848084
0.0147 6366.956993542647 1.000276740352277 1.54996264817408 278.679541972794 8.327714633049894
0.0148 6366.970292038247 1.000276213105935 1.5498878392076 278.5931017513948 8.277865093835391
0.0149 6366.983638213223 1.000275685286771 1.549812967705364 278.5063516140534 8.22810211165792
0.015 6366.997032107858 1.000275156903262 1.549738033634927 278.4192912989223 8.178427166812307
0.0151 6367.01047376246 1.000274627963874 1.549663036965206 278.331920544012 8.128841731356372
0.0152 6367.023963217356 1.000274098477063 1.549587977666401 278.2442390871851 8.079347269019474
0.0153 6367.037500512896 1.000273568451275 1.549512855710183 278.1562466661743 8.029945235125032
0.0154 6367.051085689451 1.000273037894941 1.549437671069503 278.0679430185704 7.980637076496905
0.0155 6367.064718787408 1.000272506816484 1.549362423718711 277.979327881846 7.931424231386318
0.0156 6367.078399847178 1.000271975224312 1.549287113633508 277.8904009933434 7.882308129379465
0.0157 6367.092128909186 1.000271443126822 1.549211740790943 277.8011620902929 7.833290191322217
0.0158 6367.105906013875 1.000270910532396 1.549136305169409 277.7116109098123 7.784371829235528
0.0159 6367.119731201706 1.000270377449405 1.549060806748679 277.621747188913 7.735554446234739
0.016 6367.133604513152 1.000269843886205 1.548985245509877 277.5315706645118 7.686839436452677
0.0161 6367.147525988702 1.000269309851139 1.548909621435469 277.441081073437 7.638228184960086
0.0162 6367.161495668859 1.000268775352535 1.548833934509263 277.3502781524161 7.589722067677227
0.0163 6367.175513594138 1.000268240398707 1.548758184716418 277.2591616381 7.541322451305227
0.0164 6367.189579805067 1.000267704997953 1.548682372043452 277.1677312670625 7.493030693245265
0.0165 6367.203694342184 1.000267169158558 1.54860649647821 277.0759867758069 7.444848141521653
0.0166 6367.217857246034 1.000266632888789 1.548530558009918 276.9839279007768 7.396776134708605
0.0167 6367.232068557179 1.000266096196899 1.548454556629053 276.8915543783395 7.348816001842297
0.0168 6367.246328316182 1.000265559091123 1.54837849232752 276.7988659448146 7.300969062358353
0.0169 6367.260636563619 1.000265021579682 1.548302365098536 276.7058623364745 7.253236626014471
0.017 6367.274993340069 1.000264483670777 1.54822617493662 276.6125432895504 7.205619992816862
0.0171 6367.289398686119 1.000263945372594 1.54814992183766 276.5189085402261 7.158120452941396
0.0172 6367.30385264236 1.000263406693301 1.548073605798848 276.4249578246616 7.110739286670555
0.0173 6367.318355249387 1.000262867641048 1.547997226818734 276.3306908789817 7.063477764313044
0.0174 6367.3329065478 1.000262328223968 1.547920784897144 276.2361074392992 7.016337146142082
0.0175 6367.3475065782 1.000261788450174 1.547844280035283 276.1412072416973 6.969318682313675
0.0176 6367.362155381192 1.000261248327761 1.547767712235629 276.0459900222535 6.922423612806371
0.0177 6367.376852997378 1.000260707864804 1.547691081502007 275.950455517045 6.875653167352816
0.0178 6367.391599467363 1.00026016706936 1.547614387839533 275.8546034621435 6.829008565366315
0.0179 6367.40639483175 1.000259625949466 1.547537631254657 275.7584335936261 6.782491015876962
0.018 6367.421239131143 1.000259084513138 1.547460811755122 275.6619456475704 6.736101717459918
0.0181 6367.43613240614 1.000258542768373 1.547383929349976 275.5651393600891 6.68984185818442
0.0182 6367.451074697337 1.000258000723147 1.547306984049611 275.4680144673069 6.64371261553508
0.0183 6367.466066045327 1.000257458385414 1.547229975865632 275.3705707053722 6.5977151563512
0.0184 6367.481106490698 1.000256915763108 1.547152904811032 275.2728078104627 6.551850636764037
0.0185 6367.49619607403 1.000256372864141 1.547075770900048 275.1747255188037 6.506120202140393
0.0186 6367.511334835899 1.000255829696403 1.546998574148226 275.0763235666558 6.460524987013172
0.0187 6367.526522816872 1.000255286267762 1.546921314572405 274.9776016903328 6.415066115026677
0.0188 6367.541760057508 1.000254742586064 1.546843992190683 274.8785596261959 6.369744698871744
0.0189 6367.557046598359 1.000254198659131 1.546766607022457 274.7791971106652 6.324561840229993
0.019 6367.572382479965 1.000253654494764 1.546689159088413 274.6795138802262 6.279518629716178
0.0191 6367.587767742856 1.000253110100738 1.546611648410494 274.5795096714349 6.234616146821417
0.0192 6367.603202427551 1.000252565484807 1.54653407501192 274.4791842209187 6.189855459854677
0.0193 6367.618686574557 1.000252020654699 1.546456438917174 274.3785372653814 6.145237625887852
0.0194 6367.634220224367 1.000251475618119 1.546378740152012 274.2775685416158 6.100763690704363
0.0195 6367.649803417461 1.000250930382746 1.546300978743447 274.1762777865032 6.056434688743378
0.0196 6367.665436194303 1.000250384956238 1.546223154719735 274.0746647370314 6.012251643052763
0.0197 6367.681118595343 1.000249839346222 1.546145268110408 273.972729130271 5.968215565224908
0.0198 6367.696850661016 1.000249293560304 1.546067318946234 273.8704707033988 5.924327455354246
0.0199 6367.712632431736 1.000248747606064 1.545989307259231 273.7678891937161 5.880588301992873
0.02 6367.728463947903 1.000248201491054 1.545911233082666 273.6649843386302 5.836999082091959
0.0201 6367.744345249898 1.000247655222802 1.545833096450989 273.5617558756611 5.79356076095441
0.0202 6367.760276378082 1.000247108808807 1.545754897399961 273.4582035424645 5.750274292195893
0.0203 6367.776257372794 1.000246562256544 1.545676635966527 273.3543270768381 5.707140617699188
