#theta R n z T P_w
0 6365.5 1.000282841034465 1.560324351282931 288.15 2.216724686936769
0.0001 6365.506698014227 1.000282640711327 1.560243310728742 288.1064629075221 2.210517718298444
0.0002 6365.513447627732 1.000282438986036 1.56016225749318 288.062590419744 2.204278380697164
0.0003 6365.520248848839 1.000282235861465 1.560081191477525 288.0183824825439 2.198006989031215
0.0004 6365.527101685941 1.000282031340505 1.560000112583376 287.9738390413862 2.191703859477043
0.0005 6365.534006147492 1.000281825426067 1.559919020712715 287.9289600413039 2.185369309463963
0.0006000000000000001 6365.540962242013 1.000281618121076 1.559837915768076 287.8837454269159 2.179003657653809
0.0007 6365.547969978088 1.000281409428478 1.559756797652386 287.8381951424275 2.172607223917973
0.0008 6365.555029364366 1.000281199351235 1.559675666268917 287.7923091316242 2.166180329313543
0.0009000000000000001 6365.562140409555 1.000280987892328 1.5595945215214 287.7460873378894 2.15972329606267
0.001 6365.569303122434 1.000280775054754 1.559513363313995 287.6995297041811 2.153236447526066
0.0011 6365.576517511838 1.000280560841528 1.559432191551232 287.6526361730552 2.146720108183045
0.0012 6365.583783586668 1.000280345255683 1.559351006138102 287.6054066866594 2.140174603607346
0.0013 6365.591101355887 1.000280128300268 1.559269806979927 287.557841186734 2.133600260443712
0.0014 6365.598470828522 1.000279909978351 1.559188593982459 287.5099396146051 2.126997406383595
0.0015 6365.60589201366 1.000279690293014 1.559107367051868 287.4617019112087 2.120366370144857
0.0016 6365.613364920449 1.000279469247361 1.559026126094669 287.413128017079 2.113707481446507
0.0017 6365.620889558101 1.000279246844508 1.558944871017841 287.364217872342 2.107021070984199
0.0018 6365.628465935888 1.000279023087591 1.558863601728661 287.3149714167279 2.100307470408105
0.0019 6365.636094063142 1.000278797979761 1.558782318134836 287.2653885895764 2.093567012299891
0.002 6365.643773949259 1.000278571524188 1.558701020144491 287.2154693298197 2.086800030146436
0.0021 6365.651505603691 1.000278343724055 1.558619707666122 287.1652135760054 2.080006858319106
0.0022 6365.659289035956 1.000278114582565 1.558538380608495 287.1146212662851 2.073187832048159
0.0023 6365.667124255627 1.000277884102936 1.558457038880972 287.0636923384262 2.066343287400289
0.0024 6365.675011272338 1.000277652288403 1.558375682393067 287.012426729806 2.059473561253734
0.0025 6365.682950095784 1.000277419142217 1.558294311054806 286.9608243774054 2.052578991273336
0.0026 6365.690940735719 1.000277184667644 1.558212924776613 286.9088852178273 2.045659915888723
0.0027 6365.698983201955 1.000276948867969 1.558131523469117 286.8566091872902 2.038716674269272
0.0028 6365.707077504365 1.000276711746491 1.558050107043509 286.8039962216284 2.031749606299816
0.0029 6365.715223652878 1.000276473306524 1.55796867541126 286.7510462562917 2.024759052556326
0.003 6365.723421657483 1.000276233551401 1.557887228484179 286.6977592263578 2.017745354283099
0.0031 6365.731671528228 1.000275992484468 1.557805766174542 286.6441350665199 2.010708853366782
0.0032 6365.739973275216 1.000275750109088 1.557724288394909 286.5901737110929 2.003649892312722
0.0033 6365.748326908611 1.000275506428641 1.557642795058225 286.5358750940253 1.996568814222025
0.0034 6365.756732438635 1.000275261446518 1.557561286077808 286.4812391488753 1.989465962763958
0.0035 6365.765189875561 1.000275015166131 1.557479761367375 286.4262658088522 1.982341682156801
0.0036 6365.773699229727 1.000274767590905 1.557398220840912 286.3709550067755 1.975196317137889
0.0037 6365.782260511523 1.000274518724279 1.557316664412874 286.3153066751037 1.968030212942856
0.0038 6365.790873731396 1.000274268569708 1.557235091997994 286.259320745923 1.960843715279486
0.0039 6365.799538899852 1.000274017130663 1.557153503511473 286.202997150965 1.953637170305345
0.004 6365.80825602745 1.000273764410631 1.557071898868699 286.1463358215768 1.946410924599331
0.0041 6365.817025124807 1.00027351041311 1.556990277985622 286.089336688757 1.939165325141534
0.004200000000000001 6365.825846202594 1.000273255141617 1.556908640778403 286.0319996831375 1.931900719286273
0.0043 6365.834719271539 1.000272998599682 1.556826987163597 285.9743247349955 1.924617454738877
0.0044 6365.843644342424 1.000272740790849 1.556745317058183 285.9163117742418 1.917315879529472
0.004500000000000001 6365.852621426086 1.000272481718677 1.556663630379439 285.8579607304381 1.909996341990485
0.0046 6365.861650533418 1.000272221386741 1.556581927044995 285.7992715327799 1.902659190729668
0.0047 6365.870731675367 1.000271959798629 1.55650020697283 285.7402441101138 1.895304774607587
0.0048 6365.879864862934 1.000271696957943 1.556418470081347 285.6808783909318 1.887933442712123
0.0049 6365.889050107174 1.0002714328683 1.556336716289264 285.6211743033708 1.880545544333728
0.005 6365.898287419196 1.00027116753333 1.556254945515597 285.5611317752254 1.873141428942132
0.0051 6365.907576810163 1.000270900956679 1.556173157679834 285.5007507339409 1.865721446160861
0.005200000000000001 6365.916918291291 1.000270633142006 1.556091352701739 285.4400311066082 1.858285945741764
0.0053 6365.92631187385 1.000270364092983 1.556009530501405 285.3789728199753 1.850835277541741
0.0054 6365.935757569161 1.000270093813296 1.55592769099941 285.317575800453 1.843369791498717
0.005500000000000001 6365.9452553886 1.000269822306646 1.555845834116554 285.2558399740977 1.835889837604775
0.0056 6365.954805343595 1.000269549576746 1.555763959774036 285.1937652666346 1.828395765884319
0.0057 6365.964407445625 1.000269275627323 1.555682067893431 285.1313516034401 1.820887926367238
0.0058 6365.974061706222 1.000269000462119 1.555600158396653 285.0685989095595 1.813366669066375
0.0059 6365.98376813697 1.000268724084886 1.555518231205993 285.0055071096953 1.805832343951449
0.006 6365.993526749504 1.000268446499391 1.555436286244019 284.9420761282248 1.798285300926543
0.0061 6366.003337555511 1.000268167709416 1.555354323433752 284.8783058891767 1.790725889802678
0.006200000000000001 6366.01320056673 1.000267887718751 1.555272342698513 284.8141963162542 1.78315446027605
0.0063 6366.023115794949 1.000267606531205 1.555190343961992 284.7497473328298 1.775571361902764
0.0064 6366.033083252009 1.000267324150594 1.555108327148242 284.6849588619447 1.767976944074317
0.006500000000000001 6366.043102949798 1.000267040580752 1.555026292181626 284.619830826315 1.760371555993788
0.0066 6366.053174900258 1.000266755825522 1.55494423898689 284.55436314832 1.752755546650008
0.0067 6366.063299115381 1.00026646988876 1.554862167489186 284.4885557500255 1.745129264795895
0.0068 6366.073475607204 1.000266182774335 1.554780077613938 284.4224085531722 1.737493058922679
0.006900000000000001 6366.08370438782 1.00026589448613 1.554697969286952 284.3559214791698 1.729847277234888
0.007 6366.093985469368 1.000265605028037 1.554615842434427 284.2890944491086 1.722192267627414
0.0071 6366.104318864036 1.000265314403961 1.554533696982861 284.2219273837658 1.714528377661931
0.007200000000000001 6366.114704584062 1.000265022617822 1.55445153285913 284.1544202035992 1.706855954541999
0.0073 6366.125142641731 1.000264729673549 1.554369349990468 284.0865728287475 1.699175345088909
0.0074 6366.13563304938 1.000264435575082 1.554287148304448 284.0183851790301 1.691486895717579
0.007500000000000001 6366.146175819391 1.000264140326375 1.554204927729049 283.949857173959 1.683790952413831
0.0076 6366.156770964196 1.000263843931394 1.55412268819252 283.8809887327269 1.676087860709061
0.0077 6366.167418496273 1.000263546394115 1.554040429623542 283.8117797742251 1.668377965658278
0.007800000000000001 6366.17811842815 1.000263247718524 1.553958151951093 283.7422302170256 1.660661611814241
0.007900000000000001 6366.1888707724 1.000262947908623 1.553875855104563 283.672339979399 1.65293914320561
0.008 6366.199675541644 1.000262646968421 1.553793539013638 283.6021089793143 1.645210903313175
0.0081 6366.210532748551 1.000262344901939 1.553711203608416 283.5315371344212 1.637477235044215
0.008200000000000001 6366.221442405836 1.000262041713211 1.55362884881929 283.4606243620682 1.629738480710831
0.0083 6366.232404526259 1.00026173740628 1.553546474577072 283.3893705793138 1.621994982007675
0.008400000000000001 6366.243419122631 1.000261431985201 1.553464080812856 283.3177757028974 1.614247079985241
0.008500000000000001 6366.254486207803 1.000261125454039 1.55338166745819 283.2458396492806 1.606495115030955
0.0086 6366.265605794675 1.000260817816869 1.55329923444489 283.1735623346116 1.598739426841987
0.008700000000000001 6366.276777896192 1.000260509077778 1.553216781705139 283.1009436747489 1.590980354404562
0.008800000000000001 6366.288002525345 1.000260199240864 1.553134309171531 283.0279835852556 1.583218235970137
0.0089 6366.299279695171 1.000259888310232 1.553051816776975 282.9546819813871 1.575453409031066
0.009000000000000001 6366.310609418749 1.000259576290002 1.552969304454744 282.8810387781331 1.567686210301975
0.0091 6366.321991709204 1.0002592631843 1.55288677213845 282.8070538901756 1.559916975692449
0.0092 6366.333426579708 1.000258948997264 1.552804219762089 282.7327272319011 1.552146040285474
0.009300000000000001 6366.344914043473 1.000258633733043 1.55272164726 282.6580587174243 1.544373738317163
0.0094 6366.356454113759 1.000258317395792 1.552639054566862 282.5830482605642 1.536600403151628
0.0095 6366.368046803867 1.000257999989681 1.552556441617774 282.5076957748619 1.528826367260272
0.009600000000000001 6366.379692127143 1.000257681518885 1.552473808348108 282.4320011735689 1.521051962198109
0.0097 6366.391390096976 1.000257361987591 1.552391154693632 282.355964369653 1.513277518582018
0.0098 6366.403140726798 1.000257041399995 1.552308480590502 282.2795852758098 1.505503366069694
0.009900000000000001 6366.414944030084 1.000256719760303 1.552225785975177 282.2028638044516 1.497729833336278
0.01 6366.426800020352 1.000256397072729 1.552143070784493 282.1257998677123 1.489957248052914
0.0101 6366.438708711162 1.000256073341496 1.552060334955653 282.0483933774484 1.482185936864806
0.0102 6366.450670116116 1.000255748570838 1.551977578426203 281.9706442452442 1.474416225369979
0.0103 6366.462684248861 1.000255422764997 1.551894801134053 281.8925523824063 1.466648438096963
0.0104 6366.47475112308 1.000255095928222 1.551812003017484 281.814117699981 1.458882898484946
0.0105 6366.486870752502 1.000254768064773 1.551729184015121 281.735340108737 1.451119928860507
0.0106 6366.499043150897 1.000254439178919 1.55164634406594 281.6562195191708 1.443359850416835
0.0107 6366.511268332075 1.000254109274934 1.551563483109297 281.5767558415131 1.435602983193051
0.0108 6366.523546309888 1.000253778357106 1.551480601084841 281.4969489857284 1.42784964605307
0.0109 6366.535877098227 1.000253446429727 1.551397697932685 281.4167988615271 1.42010015666572
0.011 6366.548260711023 1.000253113497098 1.551314773593203 281.3363053783477 1.412354831482127
0.0111 6366.560697162251 1.000252779563529 1.551231828007217 281.2554684453684 1.404613985716102
0.0112 6366.573186465923 1.000252444633339 1.551148861115799 281.1742879715015 1.396877933322936
0.0113 6366.585728636091 1.000252108710853 1.55106587286046 281.092763865411 1.389146986980585
0.0114 6366.598323686846 1.000251771800403 1.550982863183076 281.0108960355009 1.381421458068162
0.0115 6366.610971632321 1.000251433906333 1.550899832025787 280.9286843899148 1.373701656645702
0.0116 6366.623672486686 1.00025109503299 1.5508167793312 280.8461288365423 1.36598789143462
0.0117 6366.63642626415 1.000250755184732 1.550733705042217 280.7632292830248 1.358280469798293
0.0118 6366.649232978961 1.000250414365921 1.550650609102134 280.6799856367551 1.350579697722222
0.0119 6366.662092645404 1.00025007258093 1.550567491454549 280.596397804872 1.342885879793798
0.012 6366.675005277807 1.000249729834138 1.550484352043479 280.5124656942543 1.335199319182235
0.0121 6366.687970890529 1.000249386129928 1.55040119081328 280.4281892115617 1.327520317622955
0.0122 6366.700989497972 1.000249041472696 1.55031800770862 280.3435682631824 1.319849175393468
0.0123 6366.714061114574 1.000248695866839 1.550234802674606 280.2586027552678 1.312186191297521
0.0124 6366.727185754809 1.000248349316766 1.55015157565664 280.1732925937389 1.304531662646663
0.0125 6366.74036343319 1.000248001826888 1.550068326600511 280.0876376842624 1.296885885239313
0.0126 6366.753594164266 1.000247653401626 1.549985055452353 280.0016379322686 1.289249153343717
0.0127 6366.766877962623 1.000247304045407 1.549901762158654 279.9152932429514 1.281621759679457
0.0128 6366.780214842882 1.000246953762664 1.549818446666271 279.8286035212681 1.274003995399115
0.0129 6366.793604819703 1.000246602557835 1.549735108922403 279.7415686719336 1.266396150069591
0.013 6366.807047907778 1.000246250435366 1.549651748874644 279.6541885994442 1.258798511656154
0.0131 6366.820544121839 1.000245897399709 1.549568366470903 279.5664632080478 1.251211366502022
0.0132 6366.83409347665 1.000245543455323 1.549484961659434 279.4783924017737 1.243634999313245
0.0133 6366.847695987014 1.000245188606669 1.549401534388899 279.3899760844087 1.236069693139147
0.0134 6366.861351667765 1.000244832858219 1.549318084608287 279.3012141595267 1.22851572935752
0.0135 6366.875060533775 1.000244476214446 1.549234612266942 279.2121065304653 1.22097338765541
0.0136 6366.888822599947 1.000244118679834 1.549151117314573 279.1226531003434 1.213442946013626
0.0137 6366.902637881223 1.000243760258867 1.549067599701255 279.0328537720492 1.205924680688905
0.0138 6366.916506392576 1.000243400956038 1.548984059377373 278.942708448258 1.198418866198736
0.0139 6366.930428149013 1.000243040775844 1.548900496293722 278.8522170314149 1.190925775303399
0.014 6366.944403165577 1.000242679722788 1.548816910401428 278.7613794237517 1.183445678991129
0.0141 6366.958431457342 1.000242317801378 1.548733301651982 278.670195527276 1.175978846461014
0.0142 6366.972513039417 1.000241955016127 1.548649669997197 278.5786652437881 1.168525545108503
0.0143 6366.986647926944 1.000241591371552 1.548566015389301 278.4867884748641 1.16108604050819
0.0144 6367.000836135097 1.000241226872177 1.548482337780794 278.3945651218727 1.153660596399676
0.0145 6367.015077679081 1.000240861522528 1.548398637124631 278.301995085976 1.146249474672161
0.0146 6367.029372574136 1.000240495327139 1.548314913374029 278.2090782681174 1.138852935348284
0.0147 6367.043720835534 1.000240128290546 1.548231166482617 278.1158145690273 1.131471236569589
0.0148 6367.058122478579 1.00023976041729 1.548147396404356 278.0222038892351 1.124104634582628
0.0149 6367.072577518606 1.000239391711917 1.548063603093566 277.9282461290635 1.116753383723843
0.015 6367.08708597098 1.000239022178977 1.547979786504894 277.833941188628 1.109417736405124
0.0151 6367.1016478511 1.000238651823024 1.547895946593388 277.7392889678493 1.102097943100464
0.0152 6367.116263174395 1.000238280648618 1.54781208331441 277.6442893664351 1.094794252330529
0.0153 6367.130931956323 1.000237908660319 1.547728196623679 277.5489422838981 1.087506910650165
0.0154 6367.145654212377 1.000237535862695 1.547644286477298 277.4532476195499 1.080236162634276
0.0155 6367.160429958075 1.000237162260316 1.547560352831689 277.3572052725129 1.072982250865252
0.0156 6367.17525920897 1.000236787857755 1.547476395643612 277.260815141697 1.065745415917912
0.0157 6367.190141980642 1.00023641265959 1.547392414870226 277.1640771258284 1.058525896348679
0.0158 6367.205078288701 1.000236036670403 1.547308410468991 277.0669911234444 1.051323928682255
0.0159 6367.220068148788 1.000235659894777 1.547224382397748 276.9695570328753 1.044139747397648
0.016 6367.235111576573 1.000235282337302 1.547140330614666 276.8717747522741 1.036973584917917
0.0161 6367.250208587754 1.000234904002567 1.547056255078281 276.7736441795986 1.029825671596607
0.0162 6367.265359198058 1.000234524895167 1.546972155747487 276.6751652126235 1.022696235706578
0.0163 6367.28056342324 1.000234145019701 1.546888032581504 276.5763377489401 1.015585503428166
0.0164 6367.295821279085 1.000233764380768 1.546803885539883 276.4771616859447 1.008493698836717
0.0165 6367.311132781407 1.000233382982972 1.546719714582566 276.3776369208562 1.001421043892452
0.0166 6367.326497946045 1.000233000830919 1.54663551966982 276.2777633507102 0.9943677584288504
0.0167 6367.341916788867 1.000232617929218 1.546551300762261 276.1775408723651 0.9873340601420751
0.0168 6367.357389325771 1.00023223428248 1.546467057820841 276.0769693824899 0.9803201645793806
0.0169 6367.372915572678 1.000231849895321 1.546382790806874 275.9760487775942 0.973326285130621
0.017 6367.38849554554 1.000231464772356 1.546298499681994 275.8747789539924 0.9663526330154399
0.0171 6367.404129260333 1.000231078918204 1.546214184408229 275.7731598078334 0.9593994172752074
0.0172 6367.419816733061 1.000230692337487 1.546129844947897 275.6711912351005 0.9524668447630973
0.0173 6367.435557979756 1.000230305034829 1.546045481263681 275.568873131588 0.9455551201327965
0.0174 6367.451353016472 1.000229917014854 1.545961093318605 275.4662053929304 0.9386644458310566
0.0175 6367.467201859294 1.00022952828219 1.545876681076061 275.3631879145909 0.9317950220876422
0.0176 6367.483104524329 1.000229138841467 1.545792244499713 275.2598205918611 0.9249470469063166
0.0177 6367.499061027713 1.000228748697317 1.545707783553645 275.1561033198672 0.9181207160564399
0.0178 6367.515071385603 1.000228357854372 1.545623298202243 275.0520359935816 0.9113162230651639
0.0179 6367.531135614185 1.000227966317267 1.545538788410223 274.9476185077996 0.9045337592075281
0.018 6367.547253729668 1.000227574090639 1.545454254142689 274.8428507571565 0.8977735134995041
0.0181 6367.563425748287 1.000227181179125 1.545369695365033 274.7377326361342 0.8910356726904698
0.0182 6367.579651686301 1.000226787587365 1.545285112042984 274.632264039043 0.8843204212543964
0.0183 6367.595931559993 1.000226393319999 1.545200504142655 274.5264448600454 0.877627941383919
0.0184 6367.612265385671 1.00022599838167 1.545115871630439 274.4202749931386 0.870958412981988
0.0185 6367.628653179666 1.00022560277702 1.545031214473111 274.3137543321717 0.8643120136560012
0.0186 6367.645094958332 1.000225206510694 1.544946532637765 274.2068827708403 0.8576889187106634
0.0187 6367.661590738047 1.000224809587337 1.54486182609184 274.099660202692 0.8510893011418189
0.0188 6367.678140535215 1.000224412011594 1.544777094803088 273.9920865211033 0.844513331628701
0.0189 6367.694744366258 1.000224013788112 1.544692338739604 273.8841616193203 0.8379611785304099
0.019 6367.711402247627 1.000223614921541 1.544607557869814 273.7758853904237 0.8314330078779023
0.0191 6367.72811419579 1.000223215416526 1.544522752162496 273.6672577273642 0.8249289833705378
0.0192 6367.74488022724 1.000222815277718 1.544437921586721 273.5582785229388 0.8184492663692695
0.0193 6367.761700358493 1.000222414509766 1.544353066111926 273.4489476697967 0.8119940158918679
0.0194 6367.778574606085 1.00022201311732 1.544268185707844 273.339265060445 0.8055633886083654
0.0195 6367.795502986576 1.000221611105029 1.544183280344585 273.2292305872551 0.7991575388367238
0.0196 6367.812485516545 1.000221208477546 1.544098349992539 273.1188441424564 0.7927766185380422
0.0197 6367.829522212594 1.000220805239519 1.544013394622461 273.0081056181365 0.7864207773123538
0.0198 6367.846613091348 1.0002204013956 1.54392841420541 272.897014906241 0.7800901623946626
0.0199 6367.863758169448 1.000219996950439 1.543843408712769 272.7855718985855 0.7737849186518805
0.02 6367.880957463561 1.000219591908688 1.543758378116267 272.6737764868557 0.7675051885793149
0.0201 6367.898210990372 1.000219186274997 1.543673322387932 272.5616285625832 0.7612511122960791
0.0202 6367.915518766586 1.000218780054017 1.543588241500138 272.4491280171936 0.755022827544711
0.0203 6367.932880808929 1.000218373250397 1.543503135425567 272.3362747419586 0.7488204696857368
